   3.4224134e-01	   2.1552046e-01	   3.3459237e-01	   1.9822933e-01	   3.1946269e-01	   2.3077568e-01	   3.3825376e-01	   2.0822255e-01	   3.3978627e-01	   1.4200620e-01	   2.9942469e-01	   1.1651142e-01	   1.2606964e-01	   3.0289421e-01	   1.4590770e-01	   2.9814666e-01	   1.0481479e-01	   2.7996027e-01	   1.2578629e-01	   2.8942999e-01	   9.9411303e-02	   2.6880013e-01	   9.8848355e-02	   2.7426155e-01	   1.2822679e-01	   2.9690476e-01	   9.8132897e-02	   2.7169435e-01	   1.1185172e-01	   2.8235670e-01	   7.4015247e-02	   2.4919660e-01	   1.0295996e-01	   2.8333799e-01	   6.8802598e-02	   2.4695136e-01	   7.0257188e-02	   2.6330298e-01	   7.3661017e-02	   2.6078071e-01	   9.7644981e-02	   2.7668999e-01	   8.8009968e-02	   2.6507318e-01	   1.1189666e-01	   2.8677274e-01	   6.8129986e-02	   2.4735987e-01	   8.3323271e-02	   2.5571902e-01	   5.8238337e-02	   2.3418782e-01	   6.0176710e-02	   9.6918618e-02	   2.6967592e-01	   1.0068136e-01	   2.6262039e-01	   8.7262066e-02	   2.4864051e-01	   8.7293499e-02	   8.4141798e-02	   2.4275064e-01	   6.0130141e-02	   2.4110639e-01	   5.0553894e-02	   2.3759051e-01	   2.5207563e-02	   3.4341297e-02	   2.3269138e-01	   4.8756601e-02	   2.3707327e-01	   7.4608958e-02	   2.5347755e-01	   4.9278376e-02	   2.4508674e-01	   3.6954358e-02	   2.4041836e-01	   2.3900383e-02	   2.1713932e-01	   5.2307710e-03	   1.9917850e-01	   4.4710495e-05	   2.2474367e-01	   3.7471126e-02	   2.3974198e-01	   2.1854222e-02	   2.2772013e-01	   4.6206320e-02	   2.3808570e-01	   7.4595306e-02	   2.5620656e-01	   1.0064373e-01	   2.6169420e-01	   1.0201166e-01	   2.6412949e-01	   9.4494905e-02	   2.6640978e-01	   1.1732184e-01	   2.8268658e-01	   1.6131446e-01	   3.0448424e-01	   1.3960678e-01	   2.8987010e-01	   1.4736546e-01	   3.2015317e-01	   1.7014021e-01	   3.5389455e-01	   2.0144027e-01	   3.9141891e-01	   2.4931313e-01	   4.2138110e-01	
   3.4208136e-01	   2.1545121e-01	   3.3441953e-01	   1.9821918e-01	   3.1944289e-01	   2.3073255e-01	   3.3813723e-01	   2.0820004e-01	   3.3953240e-01	   1.4199567e-01	   2.9918245e-01	   1.1630163e-01	   1.2604819e-01	   3.0254385e-01	   1.4576526e-01	   2.9800319e-01	   1.0463516e-01	   2.7991491e-01	   1.2568842e-01	   2.8905371e-01	   9.9346251e-02	   2.6869030e-01	   9.8728461e-02	   2.7422445e-01	   1.2814095e-01	   2.9682213e-01	   9.8052725e-02	   2.7130302e-01	   1.1165508e-01	   2.8198454e-01	   7.3904964e-02	   2.4887223e-01	   1.0293688e-01	   2.8314403e-01	   6.8706801e-02	   2.4680359e-01	   7.0049162e-02	   2.6317628e-01	   7.3596126e-02	   2.6078032e-01	   9.7516988e-02	   2.7636522e-01	   8.7773735e-02	   2.6482437e-01	   1.1185905e-01	   2.8651062e-01	   6.8010315e-02	   2.4708009e-01	   8.3291655e-02	   2.5546814e-01	   5.8118015e-02	   2.3395023e-01	   6.0127184e-02	   9.6830469e-02	   2.6966867e-01	   1.0059419e-01	   2.6238759e-01	   8.7122178e-02	   2.4848280e-01	   8.7224330e-02	   8.3979473e-02	   2.4255473e-01	   6.0070902e-02	   2.4095494e-01	   5.0448917e-02	   2.3748136e-01	   2.5084124e-02	   3.4127071e-02	   2.3254068e-01	   4.8652731e-02	   2.3695699e-01	   7.4490044e-02	   2.5314436e-01	   4.9116714e-02	   2.4490059e-01	   3.6815119e-02	   2.4017678e-01	   2.3826110e-02	   2.1707287e-01	   5.0941904e-03	   1.9905364e-01	   0.0000000e+00	   2.2441244e-01	   3.7356638e-02	   2.3943360e-01	   2.1683276e-02	   2.2727899e-01	   4.6063386e-02	   2.3792200e-01	   7.4588853e-02	   2.5618098e-01	   1.0061592e-01	   2.6128875e-01	   1.0199997e-01	   2.6379565e-01	   9.4468379e-02	   2.6633443e-01	   1.1721649e-01	   2.8251795e-01	   1.6125995e-01	   3.0435689e-01	   1.3959694e-01	   2.8971301e-01	   1.4733292e-01	   3.1995764e-01	   1.7006544e-01	   3.5379959e-01	   2.0130193e-01	   3.9124263e-01	   2.4925770e-01	   4.2132417e-01	
   3.4218254e-01	   2.1549056e-01	   3.3470380e-01	   1.9830134e-01	   3.1946119e-01	   2.3078383e-01	   3.3822514e-01	   2.0833897e-01	   3.3984994e-01	   1.4210792e-01	   2.9955765e-01	   1.1634622e-01	   1.2621047e-01	   3.0265289e-01	   1.4577770e-01	   2.9807778e-01	   1.0474331e-01	   2.8043076e-01	   1.2574427e-01	   2.8914599e-01	   9.9419661e-02	   2.6904406e-01	   9.8758814e-02	   2.7477423e-01	   1.2817820e-01	   2.9747328e-01	   9.8115160e-02	   2.7137497e-01	   1.1166186e-01	   2.8214648e-01	   7.3957660e-02	   2.4909092e-01	   1.0310239e-01	   2.8319053e-01	   6.8799280e-02	   2.4682803e-01	   7.0108619e-02	   2.6319383e-01	   7.3699404e-02	   2.6128128e-01	   9.7580407e-02	   2.7666085e-01	   8.7782395e-02	   2.6482689e-01	   1.1196550e-01	   2.8659295e-01	   6.8076063e-02	   2.4720013e-01	   8.3409917e-02	   2.5557425e-01	   5.8269993e-02	   2.3407039e-01	   6.0225501e-02	   9.6918314e-02	   2.6991260e-01	   1.0062624e-01	   2.6255252e-01	   8.7168161e-02	   2.4851137e-01	   8.7317858e-02	   8.4032046e-02	   2.4270763e-01	   6.0188335e-02	   2.4110089e-01	   5.0538925e-02	   2.3759394e-01	   2.5210956e-02	   3.4161500e-02	   2.3286490e-01	   4.8776078e-02	   2.3738122e-01	   7.4562987e-02	   2.5325092e-01	   4.9140075e-02	   2.4526751e-01	   3.6852365e-02	   2.4061458e-01	   2.3988821e-02	   2.1747972e-01	   5.1621048e-03	   1.9921835e-01	   1.9700613e-04	   2.2458796e-01	   3.7416295e-02	   2.3955666e-01	   2.1743585e-02	   2.2732776e-01	   4.6087888e-02	   2.3794672e-01	   7.4691301e-02	   2.5670538e-01	   1.0075449e-01	   2.6132847e-01	   1.0210754e-01	   2.6382205e-01	   9.4499399e-02	   2.6685767e-01	   1.1729170e-01	   2.8292644e-01	   1.6127756e-01	   3.0455051e-01	   1.3971893e-01	   2.8982112e-01	   1.4743760e-01	   3.1996841e-01	   1.7014842e-01	   3.5381439e-01	   2.0132629e-01	   3.9133485e-01	   2.4934193e-01	   4.2179985e-01	
   3.4271034e-01	   2.1563430e-01	   3.3567155e-01	   1.9847777e-01	   3.1962308e-01	   2.3091964e-01	   3.3868582e-01	   2.0861595e-01	   3.4102141e-01	   1.4232428e-01	   3.0081159e-01	   1.1663946e-01	   1.2653761e-01	   3.0348501e-01	   1.4593007e-01	   2.9853790e-01	   1.0511667e-01	   2.8178076e-01	   1.2594654e-01	   2.8996763e-01	   9.9619664e-02	   2.7011711e-01	   9.8944192e-02	   2.7618998e-01	   1.2833802e-01	   2.9916406e-01	   9.8313568e-02	   2.7216552e-01	   1.1186313e-01	   2.8311799e-01	   7.4182088e-02	   2.5011800e-01	   1.0346087e-01	   2.8369562e-01	   6.9058774e-02	   2.4720651e-01	   7.0425277e-02	   2.6354948e-01	   7.3972304e-02	   2.6255447e-01	   9.7815065e-02	   2.7787024e-01	   8.8039602e-02	   2.6528578e-01	   1.1220482e-01	   2.8723562e-01	   6.8325781e-02	   2.4795854e-01	   8.3681858e-02	   2.5624869e-01	   5.8678012e-02	   2.3478036e-01	   6.0448622e-02	   9.7181121e-02	   2.7059612e-01	   1.0076644e-01	   2.6335016e-01	   8.7376285e-02	   2.4890322e-01	   8.7572424e-02	   8.4293820e-02	   2.4343064e-01	   6.0470304e-02	   2.4177081e-01	   5.0819767e-02	   2.3812953e-01	   2.5563341e-02	   3.4442495e-02	   2.3394889e-01	   4.9110144e-02	   2.3863478e-01	   7.4811496e-02	   2.5406966e-01	   4.9352358e-02	   2.4646552e-01	   3.7067357e-02	   2.4204376e-01	   2.4385390e-02	   2.1862258e-01	   5.4308050e-03	   1.9988900e-01	   6.3136849e-04	   2.2554899e-01	   3.7631602e-02	   2.4036555e-01	   2.2026952e-02	   2.2812195e-01	   4.6283160e-02	   2.3833290e-01	   7.4897084e-02	   2.5805076e-01	   1.0105162e-01	   2.6204427e-01	   1.0232847e-01	   2.6442900e-01	   9.4580935e-02	   2.6823188e-01	   1.1752706e-01	   2.8416896e-01	   1.6137571e-01	   3.0525493e-01	   1.3995795e-01	   2.9037942e-01	   1.4768212e-01	   3.2034099e-01	   1.7039338e-01	   3.5409327e-01	   2.0150120e-01	   3.9189790e-01	   2.4956398e-01	   4.2306000e-01	
   3.4386471e-01	   2.1587952e-01	   3.3759154e-01	   1.9875213e-01	   3.2006822e-01	   2.3113025e-01	   3.3973073e-01	   2.0900700e-01	   3.4338096e-01	   1.4262950e-01	   3.0325480e-01	   1.1717463e-01	   1.2701240e-01	   3.0535038e-01	   1.4620911e-01	   2.9960005e-01	   1.0572563e-01	   2.8428770e-01	   1.2628995e-01	   2.9183313e-01	   9.9936953e-02	   2.7221966e-01	   9.9288140e-02	   2.7880064e-01	   1.2862034e-01	   3.0224957e-01	   9.8640903e-02	   2.7397848e-01	   1.1224439e-01	   2.8522891e-01	   7.4585103e-02	   2.5227218e-01	   1.0401327e-01	   2.8493325e-01	   6.9465041e-02	   2.4816950e-01	   7.0982510e-02	   2.6449372e-01	   7.4412677e-02	   2.6492339e-01	   9.8199103e-02	   2.8033494e-01	   8.8542130e-02	   2.6645462e-01	   1.1256100e-01	   2.8870913e-01	   6.8757367e-02	   2.4964747e-01	   8.4113611e-02	   2.5775344e-01	   5.9323480e-02	   2.3636462e-01	   6.0776368e-02	   9.7613877e-02	   2.7195954e-01	   1.0100644e-01	   2.6507064e-01	   8.7722186e-02	   2.4988502e-01	   8.7983473e-02	   8.4756942e-02	   2.4499807e-01	   6.0907776e-02	   2.4324931e-01	   5.1286160e-02	   2.3934711e-01	   2.6117291e-02	   3.4962284e-02	   2.3613888e-01	   4.9634458e-02	   2.4106760e-01	   7.5221324e-02	   2.5592886e-01	   4.9756362e-02	   2.4882800e-01	   3.7461277e-02	   2.4482778e-01	   2.5009883e-02	   2.2082077e-01	   5.8970658e-03	   2.0133451e-01	   1.2956040e-03	   2.2763045e-01	   3.7984938e-02	   2.4216589e-01	   2.2521826e-02	   2.2997066e-01	   4.6650579e-02	   2.3930038e-01	   7.5200242e-02	   2.6054135e-01	   1.0149595e-01	   2.6371496e-01	   1.0265721e-01	   2.6588234e-01	   9.4708287e-02	   2.7075026e-01	   1.1790406e-01	   2.8654198e-01	   1.6156591e-01	   3.0670723e-01	   1.4029921e-01	   2.9162318e-01	   1.4806959e-01	   3.2127535e-01	   1.7080217e-01	   3.5483456e-01	   2.0181209e-01	   3.9317871e-01	   2.4992157e-01	   4.2540504e-01	
   3.4588128e-01	   2.1622375e-01	   3.4077353e-01	   1.9912867e-01	   3.2097399e-01	   2.3140660e-01	   3.4161471e-01	   2.0948900e-01	   3.4730983e-01	   1.4301228e-01	   3.0724610e-01	   1.1794348e-01	   1.2762022e-01	   3.0860308e-01	   1.4660409e-01	   3.0153263e-01	   1.0653488e-01	   2.8832140e-01	   1.2677078e-01	   2.9511036e-01	   1.0036521e-01	   2.7571555e-01	   9.9792006e-02	   2.8298060e-01	   1.2902514e-01	   3.0713010e-01	   9.9090997e-02	   2.7716477e-01	   1.1278778e-01	   2.8886117e-01	   7.5170591e-02	   2.5592358e-01	   1.0475604e-01	   2.8723523e-01	   7.0000125e-02	   2.4999878e-01	   7.1758165e-02	   2.6633753e-01	   7.5015152e-02	   2.6876159e-01	   9.8711258e-02	   2.8444077e-01	   8.9279348e-02	   2.6863710e-01	   1.1301526e-01	   2.9134037e-01	   6.9367468e-02	   2.5261322e-01	   8.4712209e-02	   2.6040391e-01	   6.0185808e-02	   2.3916113e-01	   6.1191438e-02	   9.8208335e-02	   2.7429682e-01	   1.0134017e-01	   2.6806041e-01	   8.8181686e-02	   2.5173773e-01	   8.8542939e-02	   8.5411398e-02	   2.4773864e-01	   6.1495113e-02	   2.4587983e-01	   5.1931103e-02	   2.4156787e-01	   2.6851135e-02	   3.5706564e-02	   2.3984005e-01	   5.0326266e-02	   2.4508865e-01	   7.5780954e-02	   2.5921134e-01	   5.0351861e-02	   2.5274342e-01	   3.8034335e-02	   2.4937662e-01	   2.5852854e-02	   2.2444966e-01	   6.5585976e-03	   2.0387801e-01	   2.1788164e-03	   2.3122158e-01	   3.8459065e-02	   2.4531439e-01	   2.3212991e-02	   2.3323572e-01	   4.7189060e-02	   2.4111888e-01	   7.5594277e-02	   2.6455086e-01	   1.0207325e-01	   2.6666657e-01	   1.0308959e-01	   2.6849428e-01	   9.4879821e-02	   2.7474454e-01	   1.1840601e-01	   2.9037700e-01	   1.6186171e-01	   3.0919503e-01	   1.4072978e-01	   2.9384070e-01	   1.4860369e-01	   3.2301970e-01	   1.7137348e-01	   3.5628338e-01	   2.0224338e-01	   3.9546899e-01	   2.5041200e-01	   4.2918104e-01	
   3.4902995e-01	   2.1666401e-01	   3.4556329e-01	   1.9961132e-01	   3.2255803e-01	   2.3174063e-01	   3.4463327e-01	   2.1004116e-01	   3.5322671e-01	   1.4346535e-01	   3.1318697e-01	   1.1893589e-01	   1.2834965e-01	   3.1363461e-01	   1.4710722e-01	   3.0465643e-01	   1.0750546e-01	   2.9429118e-01	   1.2738569e-01	   3.0021547e-01	   1.0090081e-01	   2.8101638e-01	   1.0045414e-01	   2.8914079e-01	   1.2955191e-01	   3.1424180e-01	   9.9659237e-02	   2.8211720e-01	   1.1347482e-01	   2.9444165e-01	   7.5938800e-02	   2.6148665e-01	   1.0568103e-01	   2.9098947e-01	   7.0649088e-02	   2.5302778e-01	   7.2726142e-02	   2.6945284e-01	   7.5772713e-02	   2.7448556e-01	   9.9333009e-02	   2.9061089e-01	   9.0233424e-02	   2.7218571e-01	   1.1354833e-01	   2.9551088e-01	   7.0151303e-02	   2.5725247e-01	   8.5483424e-02	   2.6456821e-01	   6.1242876e-02	   2.4355798e-01	   6.1679299e-02	   9.8954171e-02	   2.7795422e-01	   1.0176331e-01	   2.7271878e-01	   8.8731825e-02	   2.5479831e-01	   8.9239360e-02	   8.6245315e-02	   2.5203397e-01	   6.2230204e-02	   2.5006178e-01	   5.2746068e-02	   2.4517588e-01	   2.7746436e-02	   3.6655199e-02	   2.4550871e-01	   5.1162625e-02	   2.5115808e-01	   7.6481132e-02	   2.6434903e-01	   5.1134296e-02	   2.5865037e-01	   3.8785312e-02	   2.5613853e-01	   2.6900723e-02	   2.2993641e-01	   7.4137607e-03	   2.0789536e-01	   3.2669670e-03	   2.3675930e-01	   3.9037005e-02	   2.5021503e-01	   2.4082045e-02	   2.3832610e-01	   4.7894933e-02	   2.4410841e-01	   7.6072304e-02	   2.7049359e-01	   1.0276805e-01	   2.7126774e-01	   1.0362329e-01	   2.7262113e-01	   9.5097991e-02	   2.8057905e-01	   1.1901762e-01	   2.9603302e-01	   1.6227702e-01	   3.1305567e-01	   1.4124057e-01	   2.9737264e-01	   1.4928846e-01	   3.2587143e-01	   1.7210229e-01	   3.5873221e-01	   2.0278022e-01	   3.9910284e-01	   2.5103186e-01	   4.3477229e-01	
   3.5361000e-01	   2.1719599e-01	   3.5233282e-01	   2.0020320e-01	   3.2507871e-01	   2.3212552e-01	   3.4911625e-01	   2.1064573e-01	   3.6157252e-01	   1.4398492e-01	   3.2151007e-01	   1.2013972e-01	   1.2919261e-01	   3.2086236e-01	   1.4771345e-01	   3.0934182e-01	   1.0859719e-01	   3.0263229e-01	   1.2813019e-01	   3.0760090e-01	   1.0154207e-01	   2.8856945e-01	   1.0126944e-01	   2.9771469e-01	   1.3019934e-01	   3.2404083e-01	   1.0034250e-01	   2.8925992e-01	   1.1428903e-01	   3.0242909e-01	   7.6886152e-02	   2.6940745e-01	   1.0677616e-01	   2.9663316e-01	   7.1400133e-02	   2.5763905e-01	   7.3858607e-02	   2.7426826e-01	   7.6678707e-02	   2.8254192e-01	   1.0005014e-01	   2.9929445e-01	   9.1380214e-02	   2.7749622e-01	   1.1414271e-01	   3.0165036e-01	   7.1102786e-02	   2.6400340e-01	   8.6429300e-02	   2.7066159e-01	   6.2471734e-02	   2.4998498e-01	   6.2228269e-02	   9.9839952e-02	   2.8332492e-01	   1.0227328e-01	   2.7948862e-01	   8.9352428e-02	   2.5945735e-01	   9.0058831e-02	   8.7245545e-02	   2.5831326e-01	   6.3113837e-02	   2.5624300e-01	   5.3721713e-02	   2.5061366e-01	   2.8788115e-02	   3.7784279e-02	   2.5363802e-01	   5.2122430e-02	   2.5977216e-01	   7.7313680e-02	   2.7181206e-01	   5.2094400e-02	   2.6702582e-01	   3.9711551e-02	   2.6558730e-01	   2.8135442e-02	   2.3775055e-01	   8.4605973e-03	   2.1380987e-01	   4.5437361e-03	   2.4471571e-01	   3.9702478e-02	   2.5731028e-01	   2.5108905e-02	   2.4568677e-01	   4.8762319e-02	   2.4863620e-01	   7.6627381e-02	   2.7880888e-01	   1.0356544e-01	   2.7792036e-01	   1.0425773e-01	   2.7865655e-01	   9.5370107e-02	   2.8864022e-01	   1.1972475e-01	   3.0388499e-01	   1.6282393e-01	   3.1866983e-01	   1.4182762e-01	   3.0260669e-01	   1.5012754e-01	   3.3017428e-01	   1.7297977e-01	   3.6251850e-01	   2.0340999e-01	   4.0445123e-01	   2.5177693e-01	   4.4258867e-01	
   3.5994128e-01	   2.1781355e-01	   3.6146506e-01	   2.0090640e-01	   3.2883220e-01	   2.3255580e-01	   3.5541724e-01	   2.1128806e-01	   3.7278916e-01	   1.4456984e-01	   3.3266106e-01	   1.2154076e-01	   1.3014378e-01	   3.3071207e-01	   1.4841975e-01	   3.1600114e-01	   1.0977152e-01	   3.1378506e-01	   1.2899738e-01	   3.1773574e-01	   1.0228832e-01	   2.9883904e-01	   1.0222941e-01	   3.0913845e-01	   1.3096501e-01	   3.3697998e-01	   1.0113846e-01	   2.9903150e-01	   1.1521761e-01	   3.1329437e-01	   7.8005573e-02	   2.8014465e-01	   1.0802669e-01	   3.0463957e-01	   7.2244238e-02	   2.6425801e-01	   7.5128397e-02	   2.8125880e-01	   7.7728339e-02	   2.9338823e-01	   1.0085330e-01	   3.1094877e-01	   9.2690820e-02	   2.8499730e-01	   1.1478448e-01	   3.1022394e-01	   7.2214767e-02	   2.7333069e-01	   8.7546082e-02	   2.7913471e-01	   6.3849450e-02	   2.5889940e-01	   6.2829922e-02	   1.0085359e-01	   2.9083842e-01	   1.0286997e-01	   2.8884001e-01	   9.0028130e-02	   2.6615101e-01	   9.0986565e-02	   8.8398291e-02	   2.6704271e-01	   6.4148127e-02	   2.6490684e-01	   5.4848646e-02	   2.5837155e-01	   2.9963944e-02	   3.9068922e-02	   2.6473676e-01	   5.3188088e-02	   2.7143995e-01	   7.8270309e-02	   2.8209136e-01	   5.3218908e-02	   2.7836538e-01	   4.0809092e-02	   2.7820339e-01	   2.9534726e-02	   2.4838796e-01	   9.6955074e-03	   2.2208173e-01	   5.9919371e-03	   2.5557889e-01	   4.0440767e-02	   2.6706590e-01	   2.6273995e-02	   2.5578146e-01	   4.9783890e-02	   2.5510946e-01	   7.7252918e-02	   2.8993875e-01	   1.0445291e-01	   2.8704458e-01	   1.0499318e-01	   2.8701906e-01	   9.5708332e-02	   2.9932044e-01	   1.2051457e-01	   3.1430726e-01	   1.6351074e-01	   3.2644835e-01	   1.4249229e-01	   3.0996671e-01	   1.5112308e-01	   3.3631078e-01	   1.7399343e-01	   3.6801877e-01	   2.0412332e-01	   4.1191198e-01	   2.5264260e-01	   4.5304758e-01	
   3.6835116e-01	   2.1850851e-01	   3.7333259e-01	   2.0172187e-01	   3.3414525e-01	   2.3302740e-01	   3.6389851e-01	   2.1195605e-01	   3.8729250e-01	   1.4522072e-01	   3.4707325e-01	   1.2312253e-01	   1.3119954e-01	   3.4359370e-01	   1.4922393e-01	   3.2507462e-01	   1.1099426e-01	   3.2816633e-01	   1.2997772e-01	   3.3107771e-01	   1.0313911e-01	   3.1228072e-01	   1.0332295e-01	   3.2382449e-01	   1.3184490e-01	   3.5347752e-01	   1.0204456e-01	   3.1186112e-01	   1.1625199e-01	   3.2749352e-01	   7.9287229e-02	   2.9414391e-01	   1.0941657e-01	   3.1549783e-01	   7.3174529e-02	   2.7334149e-01	   7.6511116e-02	   2.9092874e-01	   7.8918980e-02	   3.0746673e-01	   1.0173743e-01	   3.2601388e-01	   9.4133758e-02	   2.9513425e-01	   1.1546452e-01	   3.2171217e-01	   7.3479222e-02	   2.8570340e-01	   8.8823207e-02	   2.9045448e-01	   6.5353744e-02	   2.7076565e-01	   6.3479660e-02	   1.0198244e-01	   3.0094369e-01	   1.0355684e-01	   3.0124642e-01	   9.0750223e-02	   2.7534648e-01	   9.2008650e-02	   8.9689662e-02	   2.7870814e-01	   6.5334376e-02	   2.7655296e-01	   5.6117871e-02	   2.6896948e-01	   3.1263552e-02	   4.0486033e-02	   2.7930067e-01	   5.4346813e-02	   2.8665161e-01	   7.9342067e-02	   2.9567367e-01	   5.4492187e-02	   2.9315475e-01	   4.2072728e-02	   2.9444713e-01	   3.1072937e-02	   2.6234657e-01	   1.1111956e-02	   2.3319098e-01	   7.5951093e-03	   2.6982637e-01	   4.1239761e-02	   2.7994845e-01	   2.7560327e-02	   2.6906868e-01	   5.0951723e-02	   2.6396263e-01	   7.7943219e-02	   3.0429841e-01	   1.0542127e-01	   2.9905736e-01	   1.0582947e-01	   2.9813311e-01	   9.6128714e-02	   3.1299590e-01	   1.2137588e-01	   3.2765145e-01	   1.6434070e-01	   3.3681226e-01	   1.4324029e-01	   3.1989561e-01	   1.5227435e-01	   3.4468940e-01	   1.7512776e-01	   3.7563839e-01	   2.0491424e-01	   4.2189414e-01	   2.5362458e-01	   4.6655004e-01	
   3.7915770e-01	   2.1927081e-01	   3.8827050e-01	   2.0264926e-01	   3.4136324e-01	   2.3353768e-01	   3.7491191e-01	   2.1263951e-01	   4.0544048e-01	   1.4593936e-01	   3.6513559e-01	   1.2486587e-01	   1.3235658e-01	   3.5987124e-01	   1.5012345e-01	   3.3700898e-01	   1.1223782e-01	   3.4613449e-01	   1.3105989e-01	   3.4803799e-01	   1.0409330e-01	   3.2930943e-01	   1.0453742e-01	   3.4212923e-01	   1.3283278e-01	   3.7387978e-01	   1.0305727e-01	   3.2813803e-01	   1.1738749e-01	   3.4543384e-01	   8.0719453e-02	   3.1180599e-01	   1.1092946e-01	   3.2968507e-01	   7.4185738e-02	   2.8535980e-01	   7.7986578e-02	   3.0378669e-01	   8.0249245e-02	   3.2517187e-01	   1.0270056e-01	   3.4487911e-01	   9.5677379e-02	   3.0834629e-01	   1.1617925e-01	   3.3658294e-01	   7.4887288e-02	   3.0156510e-01	   9.0243613e-02	   3.0507687e-01	   6.6963172e-02	   2.8602824e-01	   6.4177211e-02	   1.0321324e-01	   3.1408541e-01	   1.0434155e-01	   3.1715364e-01	   9.1517568e-02	   2.8751972e-01	   9.3113432e-02	   9.1106039e-02	   2.9378955e-01	   6.6671060e-02	   2.9167077e-01	   5.7520796e-02	   2.8292999e-01	   3.2677258e-02	   4.2016197e-02	   2.9777681e-01	   5.5591419e-02	   3.0583957e-01	   8.0519569e-02	   3.1300883e-01	   5.5898260e-02	   3.1183334e-01	   4.3495958e-02	   3.1472367e-01	   3.2722489e-02	   2.8009332e-01	   1.2699550e-02	   2.4761266e-01	   9.3386744e-03	   2.8789185e-01	   4.2090893e-02	   2.9639549e-01	   2.8954730e-02	   2.8597097e-01	   5.2257930e-02	   2.7563802e-01	   7.8694168e-02	   3.2224150e-01	   1.0646460e-01	   3.1434421e-01	   1.0676496e-01	   3.1240362e-01	   9.6649498e-02	   3.2999869e-01	   1.2229938e-01	   3.4421921e-01	   1.6531179e-01	   3.5016626e-01	   1.4407976e-01	   3.3283169e-01	   1.5357688e-01	   3.5572592e-01	   1.7636528e-01	   3.8579588e-01	   2.0577989e-01	   4.3479582e-01	   2.5471950e-01	   4.8345113e-01	
   3.9264961e-01	   2.2008876e-01	   4.0654516e-01	   2.0368669e-01	   3.5083339e-01	   2.3408579e-01	   3.8877652e-01	   2.1332968e-01	   4.2749841e-01	   1.4672852e-01	   3.8715563e-01	   1.2674826e-01	   1.3361065e-01	   3.7982814e-01	   1.5111452e-01	   3.5222806e-01	   1.1348235e-01	   3.6795141e-01	   1.3223222e-01	   3.6894137e-01	   1.0514840e-01	   3.5026262e-01	   1.0585983e-01	   3.6431666e-01	   1.3391987e-01	   3.9842119e-01	   1.0417167e-01	   3.4817587e-01	   1.1862224e-01	   3.6743507e-01	   8.2289615e-02	   3.3345000e-01	   1.1254916e-01	   3.4763147e-01	   7.5273907e-02	   3.0077074e-01	   7.9539381e-02	   3.2031253e-01	   8.1717299e-02	   3.4681309e-01	   1.0374254e-01	   3.6784389e-01	   9.7292132e-02	   3.2503709e-01	   1.1693072e-01	   3.5525569e-01	   7.6429245e-02	   3.2129637e-01	   9.1785074e-02	   3.2341193e-01	   6.8656955e-02	   3.0507874e-01	   6.4926818e-02	   1.0453217e-01	   3.3067348e-01	   1.0523562e-01	   3.3694300e-01	   9.2336280e-02	   3.0312538e-01	   9.4292113e-02	   9.2634172e-02	   3.1272692e-01	   6.8152616e-02	   3.1070517e-01	   5.9048901e-02	   3.0074243e-01	   3.4195120e-02	   4.3644210e-02	   3.2052317e-01	   5.6920356e-02	   3.2933558e-01	   8.1793859e-02	   3.3447066e-01	   5.7422525e-02	   3.3475256e-01	   4.5070852e-02	   3.3934161e-01	   3.4455635e-02	   3.0202375e-01	   1.4443806e-02	   2.6578420e-01	   1.1210254e-02	   3.1012664e-01	   4.2989829e-02	   3.1677944e-01	   3.0447855e-02	   3.0683875e-01	   5.3694950e-02	   2.9055881e-01	   7.9503958e-02	   3.4402310e-01	   1.0757904e-01	   3.3322538e-01	   1.0779607e-01	   3.3018443e-01	   9.7289179e-02	   3.5058454e-01	   1.2327757e-01	   3.6423214e-01	   1.6641728e-01	   3.6686728e-01	   1.4501879e-01	   3.4917865e-01	   1.5502236e-01	   3.6981895e-01	   1.7768785e-01	   3.9890095e-01	   2.0672014e-01	   4.5097522e-01	   2.5592505e-01	   5.0402657e-01	
   4.0906388e-01	   2.2094931e-01	   4.2832189e-01	   2.0483022e-01	   3.6288334e-01	   2.3467320e-01	   4.0575422e-01	   2.1401920e-01	   4.5360578e-01	   1.4759167e-01	   4.1332135e-01	   1.2874303e-01	   1.3495548e-01	   4.0363225e-01	   1.5219169e-01	   3.7109713e-01	   1.1471571e-01	   3.9374628e-01	   1.3348390e-01	   3.9398650e-01	   1.0630050e-01	   3.7536190e-01	   1.0727775e-01	   3.9052237e-01	   1.3509506e-01	   4.2718795e-01	   1.0538148e-01	   3.7217551e-01	   1.1995558e-01	   3.9369010e-01	   8.3984860e-02	   3.5927532e-01	   1.1425991e-01	   3.6968001e-01	   7.6436329e-02	   3.1998560e-01	   8.1158634e-02	   3.4091728e-01	   8.3319147e-02	   3.7257715e-01	   1.0486427e-01	   3.9507770e-01	   9.8952326e-02	   3.4553963e-01	   1.1772584e-01	   3.7806038e-01	   7.8094566e-02	   3.4517283e-01	   9.3422169e-02	   3.4578342e-01	   7.0414796e-02	   3.2821867e-01	   6.5736902e-02	   1.0592504e-01	   3.5104735e-01	   1.0625298e-01	   3.6089189e-01	   9.3218267e-02	   3.2255987e-01	   9.5538475e-02	   9.4261025e-02	   3.3587906e-01	   6.9769484e-02	   3.3401577e-01	   6.0693315e-02	   3.2282004e-01	   3.5806506e-02	   4.5358353e-02	   3.4776763e-01	   5.8336867e-02	   3.5732898e-01	   8.3157479e-02	   3.6031546e-01	   5.9052699e-02	   3.6213367e-01	   4.6787800e-02	   3.6847062e-01	   3.6246449e-02	   3.2841851e-01	   1.6326801e-02	   2.8806654e-01	   1.3199232e-02	   3.3675961e-01	   4.3936782e-02	   3.4136834e-01	   3.2033146e-02	   3.3191198e-01	   5.5255440e-02	   3.0909501e-01	   8.0373774e-02	   3.6976544e-01	   1.0876110e-01	   3.5591993e-01	   1.0891795e-01	   3.5174330e-01	   9.8064647e-02	   3.7489986e-01	   1.2430424e-01	   3.8780249e-01	   1.6764677e-01	   3.8719030e-01	   1.4606314e-01	   3.6927065e-01	   1.5659941e-01	   3.8731993e-01	   1.7907798e-01	   4.1532617e-01	   2.0773725e-01	   4.7071665e-01	   2.5723934e-01	   5.2843879e-01	
   4.2856274e-01	   2.2183818e-01	   4.5363641e-01	   2.0607335e-01	   3.7779577e-01	   2.3530422e-01	   4.2602463e-01	   2.1470229e-01	   4.8374979e-01	   1.4853220e-01	   4.4366767e-01	   1.3081925e-01	   1.3638193e-01	   4.3130560e-01	   1.5334795e-01	   3.9388393e-01	   1.1593275e-01	   4.2348792e-01	   1.3480552e-01	   4.2321251e-01	   1.0754481e-01	   4.0467847e-01	   1.0878000e-01	   4.2072390e-01	   1.3634586e-01	   4.6009249e-01	   1.0667937e-01	   4.0019168e-01	   1.2138621e-01	   4.2423162e-01	   8.5792654e-02	   3.8932803e-01	   1.1604626e-01	   3.9604513e-01	   7.7671535e-02	   3.4332887e-01	   8.2836961e-02	   3.6589904e-01	   8.5047422e-02	   4.0249584e-01	   1.0606730e-01	   4.2658595e-01	   1.0063728e-01	   3.7007862e-01	   1.1857500e-01	   4.0519605e-01	   7.9872187e-02	   3.7332485e-01	   9.5128510e-02	   3.7238765e-01	   7.2217071e-02	   3.5562211e-01	   6.6619212e-02	   1.0737792e-01	   3.7543829e-01	   1.0740788e-01	   3.8913655e-01	   9.4178797e-02	   3.4612043e-01	   9.6847973e-02	   9.5973593e-02	   3.6347977e-01	   7.1509375e-02	   3.6183366e-01	   6.2444421e-02	   3.4945451e-01	   3.7500262e-02	   4.7149097e-02	   3.7957286e-01	   5.9847345e-02	   3.8983293e-01	   8.4605242e-02	   3.9064418e-01	   6.0778871e-02	   3.9403219e-01	   4.8635311e-02	   4.0210630e-01	   3.8072795e-02	   3.5940341e-01	   1.8328481e-02	   3.1470309e-01	   1.5296045e-02	   3.6786155e-01	   4.4936404e-02	   3.7028880e-01	   3.3705384e-02	   3.6128521e-01	   5.6931844e-02	   3.3152517e-01	   8.1308376e-02	   3.9943209e-01	   1.1000623e-01	   3.8251300e-01	   1.1012591e-01	   3.7722728e-01	   9.8989571e-02	   4.0295331e-01	   1.2537369e-01	   4.1490933e-01	   1.6898704e-01	   4.1129508e-01	   1.4721451e-01	   3.9333543e-01	   1.5829470e-01	   4.0849938e-01	   1.8052006e-01	   4.3537362e-01	   2.0883554e-01	   4.9419550e-01	   2.5865993e-01	   5.5670805e-01	
   4.5121250e-01	   2.2274007e-01	   4.8237587e-01	   2.0740675e-01	   3.9578086e-01	   2.3598630e-01	   4.4966224e-01	   2.1537520e-01	   5.1775120e-01	   1.4955209e-01	   4.7805429e-01	   1.3294241e-01	   1.3787771e-01	   4.6270546e-01	   1.5457528e-01	   4.2072161e-01	   1.1713401e-01	   4.5697120e-01	   1.3618902e-01	   4.5647842e-01	   1.0887653e-01	   4.3810892e-01	   1.1035734e-01	   4.5472443e-01	   1.3766011e-01	   4.9686458e-01	   1.0805756e-01	   4.3211041e-01	   1.2291071e-01	   4.5891164e-01	   8.7701097e-02	   4.2347865e-01	   1.1789299e-01	   4.2677700e-01	   7.8979197e-02	   3.7099670e-01	   8.4569116e-02	   3.9540131e-01	   8.6890878e-02	   4.3642588e-01	   1.0735357e-01	   4.6218958e-01	   1.0233188e-01	   3.9873597e-01	   1.1949016e-01	   4.3669618e-01	   8.1750953e-02	   4.0570717e-01	   9.6879008e-02	   4.0325883e-01	   7.4045575e-02	   3.8730418e-01	   6.7587589e-02	   1.0887791e-01	   4.0393479e-01	   1.0871269e-01	   4.2164346e-01	   9.5233386e-02	   3.7396562e-01	   9.8216593e-02	   9.7758806e-02	   3.9559855e-01	   7.3359143e-02	   3.9422290e-01	   6.4291548e-02	   3.8077480e-01	   3.9265317e-02	   4.9008028e-02	   4.1581384e-01	   6.1459230e-02	   4.2666562e-01	   8.6134348e-02	   4.2537561e-01	   6.2592927e-02	   4.3031594e-01	   5.0600189e-02	   4.4005014e-01	   3.9918038e-02	   3.9492086e-01	   2.0428139e-02	   3.4578264e-01	   1.7491680e-02	   4.0332077e-01	   4.5997169e-02	   4.0349801e-01	   3.5459403e-02	   3.9488285e-01	   5.8715774e-02	   3.5799926e-01	   8.2316286e-02	   4.3281591e-01	   1.1130814e-01	   4.1293281e-01	   1.1141738e-01	   4.0663421e-01	   1.0007299e-01	   4.3459793e-01	   1.2648010e-01	   4.4538530e-01	   1.7042247e-01	   4.3919889e-01	   1.4847005e-01	   4.2146046e-01	   1.6009388e-01	   4.3351313e-01	   1.8200123e-01	   4.5923987e-01	   2.1002059e-01	   5.2144780e-01	   2.6018289e-01	   5.8869431e-01	
   4.7696744e-01	   2.2363918e-01	   5.1427405e-01	   2.0881799e-01	   4.1694922e-01	   2.3672961e-01	   4.7661891e-01	   2.1603649e-01	   5.5526589e-01	   1.5065025e-01	   5.1616032e-01	   1.3507612e-01	   1.3942776e-01	   4.9752102e-01	   1.5586535e-01	   4.5158023e-01	   1.1832458e-01	   4.9382116e-01	   1.3762755e-01	   4.9346013e-01	   1.1029140e-01	   4.7536686e-01	   1.1200314e-01	   4.9215395e-01	   1.3902797e-01	   5.3706154e-01	   1.0950853e-01	   4.6764312e-01	   1.2452269e-01	   4.9739908e-01	   8.9699023e-02	   4.6141657e-01	   1.1978499e-01	   4.6173901e-01	   8.0359796e-02	   4.0302113e-01	   8.6350679e-02	   4.2938124e-01	   8.8834482e-02	   4.7404548e-01	   1.0872468e-01	   5.0152365e-01	   1.0402674e-01	   4.3142634e-01	   1.2048304e-01	   4.7240783e-01	   8.3720119e-02	   4.4208590e-01	   9.8651876e-02	   4.3824807e-01	   7.5884743e-02	   4.2310173e-01	   6.8656473e-02	   1.1041406e-01	   4.3645736e-01	   1.1017599e-01	   4.5819550e-01	   9.6394591e-02	   4.0608406e-01	   9.9639995e-02	   9.9603568e-02	   4.3211403e-01	   7.5306457e-02	   4.3105503e-01	   6.6222803e-02	   4.1671839e-01	   4.1091481e-02	   5.0927508e-02	   4.5617307e-01	   6.3179019e-02	   4.6745103e-01	   8.7743663e-02	   4.6423658e-01	   6.4487824e-02	   4.7066169e-01	   5.2668277e-02	   4.8191035e-01	   4.1772281e-02	   4.3471926e-01	   2.2605702e-02	   3.8121390e-01	   1.9777623e-02	   4.4283602e-01	   4.7130161e-02	   4.4077092e-01	   3.7289409e-02	   4.3245029e-01	   6.0597416e-02	   3.8850940e-01	   8.3409193e-02	   4.6954404e-01	   1.1265926e-01	   4.4694226e-01	   1.1279343e-01	   4.3979630e-01	   1.0131820e-01	   4.6952846e-01	   1.2761696e-01	   4.7891728e-01	   1.7193525e-01	   4.7076050e-01	   1.4982286e-01	   4.5356825e-01	   1.6198197e-01	   4.6237390e-01	   1.8351211e-01	   4.8698471e-01	   2.1129804e-01	   5.5235061e-01	   2.6180231e-01	   6.2409434e-01	
   5.0566190e-01	   2.2452008e-01	   5.4892272e-01	   2.1029171e-01	   4.4128932e-01	   2.3754574e-01	   5.0671569e-01	   2.1668680e-01	   5.9580227e-01	   1.5182169e-01	   5.5749776e-01	   1.3718405e-01	   1.4101530e-01	   5.3528729e-01	   1.5721009e-01	   4.8625266e-01	   1.1951317e-01	   5.3351407e-01	   1.3911538e-01	   5.3366634e-01	   1.1178576e-01	   5.1599288e-01	   1.1371411e-01	   5.3248857e-01	   1.4044347e-01	   5.8009589e-01	   1.1102539e-01	   5.0633966e-01	   1.2621275e-01	   5.3919637e-01	   9.1775944e-02	   5.0266322e-01	   1.2170745e-01	   5.0060436e-01	   8.1814069e-02	   4.3924770e-01	   8.8177138e-02	   4.6759500e-01	   9.0859822e-02	   5.1486927e-01	   1.1018071e-01	   5.4405602e-01	   1.0571818e-01	   4.6788807e-01	   1.2156378e-01	   5.1198984e-01	   8.5769862e-02	   4.8204638e-01	   1.0043011e-01	   4.7702125e-01	   7.7722958e-02	   4.6267142e-01	   6.9839286e-02	   1.1197817e-01	   4.7274871e-01	   1.1180107e-01	   4.9839666e-01	   9.7669483e-02	   4.4227810e-01	   1.0111339e-01	   1.0149489e-01	   4.7270682e-01	   7.7340725e-02	   4.7200324e-01	   6.8225080e-02	   4.5702112e-01	   4.2970276e-02	   5.2901100e-02	   5.0015498e-01	   6.5011047e-02	   5.1163982e-01	   8.9432298e-02	   5.0677228e-01	   6.6457053e-02	   5.1457134e-01	   5.4825619e-02	   5.2712392e-01	   4.3632801e-02	   4.7836290e-01	   2.4842737e-02	   4.2071753e-01	   2.2146107e-02	   4.8592910e-01	   4.8347248e-02	   4.8170589e-01	   3.9189021e-02	   4.7356325e-01	   6.2565167e-02	   4.2287452e-01	   8.4600382e-02	   5.0909956e-01	   1.1405183e-01	   4.8414758e-01	   1.1425902e-01	   4.7637984e-01	   1.0272201e-01	   5.0729556e-01	   1.2877690e-01	   5.1506133e-01	   1.7350566e-01	   5.0567899e-01	   1.5126369e-01	   4.8940670e-01	   1.6394341e-01	   4.9493417e-01	   1.8504735e-01	   5.1850959e-01	   2.1267200e-01	   5.8661818e-01	   2.6351026e-01	   6.6245547e-01	
   5.3701266e-01	   2.2536907e-01	   5.8579740e-01	   2.1181028e-01	   4.6865383e-01	   2.3844565e-01	   5.3964606e-01	   2.1732817e-01	   6.3875150e-01	   1.5305803e-01	   6.0144209e-01	   1.3923203e-01	   1.4262324e-01	   5.7541358e-01	   1.5860211e-01	   5.2435836e-01	   1.2071122e-01	   5.7541167e-01	   1.4064811e-01	   5.7647053e-01	   1.1335586e-01	   5.5938187e-01	   1.1549043e-01	   5.7508446e-01	   1.4190497e-01	   6.2527524e-01	   1.1260205e-01	   5.4761829e-01	   1.2796938e-01	   5.8367203e-01	   9.3921913e-02	   5.4660159e-01	   1.2364627e-01	   5.4287332e-01	   8.3342434e-02	   4.7933186e-01	   9.0043378e-02	   5.0960423e-01	   9.2945766e-02	   5.5827884e-01	   1.1171895e-01	   5.8912232e-01	   1.0740784e-01	   5.0769210e-01	   1.2274041e-01	   5.5493092e-01	   8.7891762e-02	   5.2502037e-01	   1.0220224e-01	   5.1907646e-01	   7.9553459e-02	   5.0550639e-01	   7.1146939e-02	   1.1356523e-01	   5.1238246e-01	   1.1358535e-01	   5.4169488e-01	   9.9058251e-02	   4.8216619e-01	   1.0263218e-01	   1.0342010e-01	   5.1687412e-01	   7.9453193e-02	   5.1655808e-01	   7.0284232e-02	   5.0122826e-01	   4.4895662e-02	   5.4924379e-02	   5.4711695e-01	   6.6957244e-02	   5.5854689e-01	   9.1197914e-02	   5.5237461e-01	   6.8494313e-02	   5.6140447e-01	   5.7059734e-02	   5.7499578e-01	   4.5503454e-02	   5.2525995e-01	   2.7123170e-02	   4.6383813e-01	   2.4590318e-02	   5.3197512e-01	   4.9659027e-02	   5.2574826e-01	   4.1151809e-02	   5.1765352e-01	   6.4605696e-02	   4.6074279e-01	   8.5902477e-02	   5.5085616e-01	   1.1547920e-01	   5.2402184e-01	   1.1582137e-01	   5.1590200e-01	   1.0427456e-01	   5.4733434e-01	   1.2995161e-01	   5.5326956e-01	   1.7511284e-01	   5.4350818e-01	   1.5278291e-01	   5.2855735e-01	   1.6596208e-01	   5.3088435e-01	   1.8660571e-01	   5.5355082e-01	   2.1414365e-01	   6.2381546e-01	   2.6529707e-01	   7.0320363e-01	
   5.7063195e-01	   2.2617573e-01	   6.2429297e-01	   2.1335495e-01	   4.9875833e-01	   2.3943736e-01	   5.7499113e-01	   2.1796320e-01	   6.8342538e-01	   1.5434959e-01	   6.4727468e-01	   1.4118977e-01	   1.4423558e-01	   6.1722164e-01	   1.6003498e-01	   5.6536460e-01	   1.2193181e-01	   6.1880237e-01	   1.4222275e-01	   6.2115345e-01	   1.1499690e-01	   6.0482265e-01	   1.1733517e-01	   6.1921988e-01	   1.4341446e-01	   6.7184748e-01	   1.1423330e-01	   5.9080632e-01	   1.2978047e-01	   6.3010278e-01	   9.6127314e-02	   5.9251647e-01	   1.2558880e-01	   5.8790761e-01	   8.4944525e-02	   5.2275548e-01	   9.1943606e-02	   5.5480275e-01	   9.5069458e-02	   6.0356358e-01	   1.1333309e-01	   6.3597071e-01	   1.0910159e-01	   5.5026676e-01	   1.2401907e-01	   6.0058449e-01	   9.0079085e-02	   5.7032634e-01	   1.0396234e-01	   5.6377784e-01	   8.1374651e-02	   5.5096865e-01	   7.2586670e-02	   1.1517351e-01	   5.5478911e-01	   1.1552059e-01	   5.8741848e-01	   1.0055421e-01	   5.2520405e-01	   1.0419298e-01	   1.0536716e-01	   5.6396324e-01	   8.1636501e-02	   5.6406175e-01	   7.2385546e-02	   5.4872441e-01	   4.6864472e-02	   5.6995529e-02	   5.9631128e-01	   6.9017483e-02	   6.0739835e-01	   9.3035386e-02	   6.0032302e-01	   7.0593294e-02	   6.1042091e-01	   5.9360638e-02	   6.2474718e-01	   4.7392968e-02	   5.7470286e-01	   2.9433818e-02	   5.0997410e-01	   2.7104263e-02	   5.8024474e-01	   5.1073128e-02	   5.7222715e-01	   4.3172026e-02	   5.6404606e-01	   6.6704485e-02	   5.0161135e-01	   8.7325185e-02	   5.9411944e-01	   1.1693651e-01	   5.6593879e-01	   1.1748708e-01	   5.5776184e-01	   1.0595941e-01	   5.8900169e-01	   1.3113242e-01	   5.9292418e-01	   1.7673597e-01	   5.8368439e-01	   1.5437193e-01	   5.7046069e-01	   1.6802181e-01	   5.6976740e-01	   1.8818948e-01	   5.9168948e-01	   2.1571022e-01	   6.6338663e-01	   2.6715187e-01	   7.4568061e-01	
   6.0604912e-01	   2.2693437e-01	   6.6376258e-01	   2.1490728e-01	   5.3119407e-01	   2.4052389e-01	   6.1224414e-01	   2.1859441e-01	   7.2909629e-01	   1.5568822e-01	   6.9422990e-01	   1.4303252e-01	   1.4583850e-01	   6.5998725e-01	   1.6150351e-01	   6.0862133e-01	   1.2318848e-01	   6.6294346e-01	   1.4383766e-01	   6.6694918e-01	   1.1670215e-01	   6.5154336e-01	   1.1925300e-01	   6.6413886e-01	   1.4497615e-01	   7.1904450e-01	   1.1591481e-01	   6.3518350e-01	   1.3163486e-01	   6.7771848e-01	   9.8382651e-02	   6.3963833e-01	   1.2752469e-01	   6.3497505e-01	   8.6618783e-02	   5.6886030e-01	   9.3871767e-02	   6.0245828e-01	   9.7207692e-02	   6.4996479e-01	   1.1501338e-01	   6.8380891e-01	   1.1080791e-01	   5.9493369e-01	   1.2540486e-01	   6.4821338e-01	   9.2326583e-02	   6.1721490e-01	   1.0570922e-01	   6.1039894e-01	   8.3189887e-02	   5.9833122e-01	   7.4161303e-02	   1.1680407e-01	   5.9929449e-01	   1.1759400e-01	   6.3481966e-01	   1.0214515e-01	   5.7072076e-01	   1.0579426e-01	   1.0732491e-01	   6.1321728e-01	   8.3884003e-02	   6.1375370e-01	   7.4514686e-02	   5.9877619e-01	   4.8876380e-02	   5.9115368e-02	   6.4693092e-01	   7.1190023e-02	   6.5737998e-01	   9.4936256e-02	   6.4983059e-01	   7.2747492e-02	   6.6082657e-01	   6.1721219e-02	   6.7556517e-01	   4.9312348e-02	   6.2591361e-01	   3.1764712e-02	   5.5841943e-01	   2.9682315e-02	   6.2995069e-01	   5.2593374e-02	   6.2039874e-01	   4.5245281e-02	   6.1200067e-01	   6.8846677e-02	   5.4485936e-01	   8.8873632e-02	   6.3816882e-01	   1.1842074e-01	   6.0921097e-01	   1.1925869e-01	   6.0127993e-01	   1.0775427e-01	   6.3161585e-01	   1.3231111e-01	   6.3337343e-01	   1.7835560e-01	   6.2556258e-01	   1.5602353e-01	   6.1445399e-01	   1.7010722e-01	   6.1100706e-01	   1.8980324e-01	   6.3237657e-01	   2.1736486e-01	   7.0469339e-01	   2.6906320e-01	   7.8918450e-01	
   6.4273751e-01	   2.2764533e-01	   7.0355456e-01	   2.1645049e-01	   5.6545307e-01	   2.4170205e-01	   6.5084011e-01	   2.1922425e-01	   7.7503485e-01	   1.5706965e-01	   7.4153989e-01	   1.4474255e-01	   1.4742081e-01	   7.0298016e-01	   1.6300389e-01	   6.5340353e-01	   1.2449427e-01	   7.0709961e-01	   1.4549225e-01	   7.1308898e-01	   1.1846279e-01	   6.9875593e-01	   1.2124846e-01	   7.0909117e-01	   1.4659486e-01	   7.6612001e-01	   1.1764307e-01	   6.8002162e-01	   1.3352312e-01	   7.2574411e-01	   1.0067843e-01	   6.8718497e-01	   1.2944668e-01	   6.8329631e-01	   8.8361926e-02	   6.1689209e-01	   9.5822355e-02	   6.5176191e-01	   9.9338594e-02	   6.9671721e-01	   1.1674774e-01	   7.3184777e-01	   1.1253579e-01	   6.4094857e-01	   1.2690278e-01	   6.9703696e-01	   9.4629817e-02	   6.6491262e-01	   1.0744518e-01	   6.5816819e-01	   8.5006792e-02	   6.4682291e-01	   7.5868955e-02	   1.1845990e-01	   6.4516361e-01	   1.1978977e-01	   6.8311796e-01	   1.0381583e-01	   6.1796314e-01	   1.0743642e-01	   1.0928351e-01	   6.6382465e-01	   8.6189172e-02	   6.6481920e-01	   7.6658947e-02	   6.5057995e-01	   5.0933426e-02	   6.1286795e-02	   6.9815299e-01	   7.3471701e-02	   7.0768088e-01	   9.6889076e-02	   7.0008871e-01	   7.4950102e-02	   7.1181640e-01	   6.4136795e-02	   7.2664660e-01	   5.1272020e-02	   6.7808735e-01	   3.4109102e-02	   6.0840977e-01	   3.2318632e-02	   6.8029188e-01	   5.4219911e-02	   6.6948952e-01	   4.7368973e-02	   6.6075261e-01	   7.1018019e-02	   5.8978810e-01	   9.0547602e-02	   6.8229499e-01	   1.1992995e-01	   6.5312709e-01	   1.2113193e-01	   6.4573998e-01	   1.0963247e-01	   6.7449283e-01	   1.3348094e-01	   6.7396498e-01	   1.7995490e-01	   6.6845511e-01	   1.5773107e-01	   6.5981464e-01	   1.7220478e-01	   6.5394441e-01	   1.9145273e-01	   6.7496872e-01	   2.1909741e-01	   7.4705601e-01	   2.7101922e-01	   8.3300795e-01	
   6.8014309e-01	   2.2831593e-01	   7.4304341e-01	   2.1797064e-01	   6.0096129e-01	   2.4296246e-01	   6.9018601e-01	   2.1985559e-01	   8.2054230e-01	   1.5849423e-01	   7.8847236e-01	   1.4631045e-01	   1.4897412e-01	   7.4549881e-01	   1.6453357e-01	   6.9895487e-01	   1.2586094e-01	   7.5057508e-01	   1.4718635e-01	   7.5883883e-01	   1.2026853e-01	   7.4569531e-01	   1.2332442e-01	   7.5336586e-01	   1.4827439e-01	   8.1237927e-01	   1.1941530e-01	   7.2461644e-01	   1.3543713e-01	   7.7343512e-01	   1.0300520e-01	   7.3439726e-01	   1.3135093e-01	   7.3208746e-01	   9.0168187e-02	   6.6604812e-01	   9.7791420e-02	   7.0187759e-01	   1.0144347e-01	   7.4308429e-01	   1.1852346e-01	   7.7933799e-01	   1.1429282e-01	   6.8754166e-01	   1.2851827e-01	   7.4627414e-01	   9.6984285e-02	   7.1265995e-01	   1.0917455e-01	   7.0631049e-01	   8.6836073e-02	   6.9567014e-01	   7.7703233e-02	   1.2014505e-01	   6.9164301e-01	   1.2209075e-01	   7.3153888e-01	   1.0555103e-01	   6.6614161e-01	   1.0912120e-01	   1.1123487e-01	   7.1496514e-01	   8.8545366e-02	   7.1643419e-01	   7.8808453e-02	   7.0330787e-01	   5.3039261e-02	   6.3513793e-02	   7.4917638e-01	   7.5857758e-02	   7.5752912e-01	   9.8880386e-02	   7.5030593e-01	   7.7194115e-02	   7.6261076e-01	   6.6603930e-02	   7.7723332e-01	   5.3279507e-02	   7.3043030e-01	   3.6463017e-02	   6.5916579e-01	   3.5006596e-02	   7.3049091e-01	   5.5950078e-02	   7.1873471e-01	   4.9542405e-02	   7.0954847e-01	   7.3205717e-02	   6.3566183e-01	   9.2341703e-02	   7.2583045e-01	   1.2146239e-01	   6.9698553e-01	   1.2309445e-01	   6.9042722e-01	   1.1156520e-01	   7.1697668e-01	   1.3463744e-01	   7.1407404e-01	   1.8152057e-01	   7.1166849e-01	   1.5948701e-01	   7.0580258e-01	   1.7430377e-01	   6.9787691e-01	   1.9314394e-01	   7.1876853e-01	   2.2089568e-01	   7.8979118e-01	   2.7300771e-01	   8.7647058e-01	
   7.1771139e-01	   2.2896117e-01	   7.8165360e-01	   2.1945741e-01	   6.3711448e-01	   2.4429078e-01	   7.2968802e-01	   2.2049253e-01	   8.6497675e-01	   1.5996585e-01	   8.3435907e-01	   1.4773610e-01	   1.5049284e-01	   7.8689820e-01	   1.6609065e-01	   7.4452786e-01	   1.2729817e-01	   7.9273862e-01	   1.4891958e-01	   8.0352852e-01	   1.2210912e-01	   7.9165144e-01	   1.2548094e-01	   7.9631679e-01	   1.5001618e-01	   8.5720029e-01	   1.2122911e-01	   7.6831118e-01	   1.3736873e-01	   8.2010523e-01	   1.0535381e-01	   7.8056786e-01	   1.3323692e-01	   7.8059499e-01	   9.2028398e-02	   7.1552194e-01	   9.9777530e-02	   7.5198621e-01	   1.0350863e-01	   7.8838541e-01	   1.2032886e-01	   8.2559859e-01	   1.1608356e-01	   7.3395452e-01	   1.3025704e-01	   7.9517863e-01	   9.9384636e-02	   7.5974146e-01	   1.1090245e-01	   7.5408191e-01	   8.8689828e-02	   7.4413215e-01	   7.9653796e-02	   1.2186365e-01	   7.3799717e-01	   1.2447961e-01	   7.7934521e-01	   1.0733872e-01	   7.1447193e-01	   1.1085082e-01	   1.1317324e-01	   7.6584839e-01	   9.0946067e-02	   7.6780270e-01	   8.0956953e-02	   7.5614800e-01	   5.5198218e-02	   6.5800036e-02	   7.9925178e-01	   7.8341378e-02	   8.0621847e-01	   1.0089601e-01	   7.9973902e-01	   7.9472628e-02	   8.1248390e-01	   6.9118925e-02	   8.2663757e-01	   5.5338183e-02	   7.8219025e-01	   3.8824412e-02	   7.0992903e-01	   3.7738394e-02	   7.7982304e-01	   5.7779538e-02	   7.6740989e-01	   5.1766643e-02	   7.5767571e-01	   7.5398945e-02	   6.8174481e-01	   9.4246064e-02	   7.6817203e-01	   1.2301598e-01	   7.4012264e-01	   1.2512649e-01	   7.3466029e-01	   1.1352409e-01	   7.5846252e-01	   1.3577871e-01	   7.5312501e-01	   1.8304322e-01	   7.5453488e-01	   1.6128172e-01	   7.5169710e-01	   1.7639680e-01	   7.4209527e-01	   1.9488252e-01	   7.6306366e-01	   2.2274722e-01	   8.3224287e-01	   2.7501619e-01	   9.1894407e-01	
   7.5491079e-01	   2.2960365e-01	   8.1887620e-01	   2.2090464e-01	   6.7331182e-01	   2.4566979e-01	   7.6877436e-01	   2.2114101e-01	   9.0777265e-01	   1.6148953e-01	   8.7861459e-01	   1.4902950e-01	   1.5197436e-01	   8.2661041e-01	   1.6767296e-01	   7.8941757e-01	   1.2881269e-01	   8.3304109e-01	   1.5069061e-01	   8.4657204e-01	   1.2397612e-01	   8.3599294e-01	   1.2771504e-01	   8.3738034e-01	   1.5181824e-01	   9.0004718e-01	   1.2308228e-01	   8.1051317e-01	   1.3930824e-01	   8.6514639e-01	   1.0771568e-01	   8.2506274e-01	   1.3510689e-01	   8.2812285e-01	   9.3929370e-02	   7.6454120e-01	   1.0178231e-01	   8.0132130e-01	   1.0552681e-01	   8.3201542e-01	   1.2215475e-01	   8.7003691e-01	   1.1790872e-01	   7.7947134e-01	   1.3212368e-01	   8.4306509e-01	   1.0182418e-01	   8.0550849e-01	   1.1263381e-01	   8.0079662e-01	   9.0579640e-02	   7.9152846e-01	   8.1707105e-02	   1.2361897e-01	   7.8353710e-01	   1.2693948e-01	   8.2586129e-01	   1.0917240e-01	   7.6220958e-01	   1.1262724e-01	   1.1509554e-01	   8.1574313e-01	   9.3385393e-02	   8.1818622e-01	   8.3102002e-02	   8.0833625e-01	   5.7414350e-02	   6.8147387e-02	   8.4770406e-01	   8.0913190e-02	   8.5312664e-01	   1.0292235e-01	   8.4771601e-01	   8.1779207e-02	   8.6078445e-01	   7.1676552e-02	   8.7425824e-01	   5.7447219e-02	   8.3267985e-01	   4.1192107e-02	   7.5998893e-01	   4.0504818e-02	   8.2763731e-01	   5.9703241e-02	   8.1485534e-01	   5.4044212e-02	   8.0448544e-01	   7.7588945e-02	   7.2733249e-01	   9.6247242e-02	   8.0879569e-01	   1.2458835e-01	   7.8193525e-01	   1.2720321e-01	   7.7781538e-01	   1.1548394e-01	   7.9841266e-01	   1.3690515e-01	   7.9060705e-01	   1.8451725e-01	   7.9643713e-01	   1.6310350e-01	   7.9682577e-01	   1.7847935e-01	   7.8591518e-01	   1.9667335e-01	   8.0716074e-01	   2.2464096e-01	   8.7380498e-01	   2.7703234e-01	   9.5987003e-01	
   7.9125119e-01	   2.3027233e-01	   8.5427921e-01	   2.2231058e-01	   7.0898393e-01	   2.4708152e-01	   8.0691327e-01	   2.2180893e-01	   9.4845329e-01	   1.6306868e-01	   9.2074598e-01	   1.5021162e-01	   1.5341942e-01	   8.6415771e-01	   1.6927729e-01	   8.3298782e-01	   1.3040732e-01	   8.7102618e-01	   1.5249657e-01	   8.8747961e-01	   1.2586420e-01	   8.7818257e-01	   1.3002096e-01	   8.7608554e-01	   1.5367460e-01	   9.4047695e-01	   1.2497250e-01	   8.5070578e-01	   1.4124386e-01	   9.0804172e-01	   1.1008284e-01	   8.6733612e-01	   1.3696542e-01	   8.7405208e-01	   9.5854173e-02	   8.1239718e-01	   1.0381022e-01	   8.4919517e-01	   1.0749813e-01	   8.7345716e-01	   1.2399526e-01	   9.1216018e-01	   1.1976531e-01	   8.2344392e-01	   1.3411981e-01	   8.8932657e-01	   1.0429490e-01	   8.4939502e-01	   1.1437280e-01	   8.4584623e-01	   9.2514858e-02	   8.3725845e-01	   8.3847314e-02	   1.2541257e-01	   8.2764153e-01	   1.2945405e-01	   8.7049060e-01	   1.1105153e-01	   8.0867570e-01	   1.1445182e-01	   1.1700168e-01	   8.6399778e-01	   9.5858623e-02	   8.6692519e-01	   8.5244633e-02	   8.5917983e-01	   5.9690679e-02	   7.0554747e-02	   8.9394738e-01	   8.3561029e-02	   8.9772622e-01	   1.0494757e-01	   8.9365166e-01	   8.4108017e-02	   9.0694871e-01	   7.4269463e-02	   9.1958936e-01	   5.9602514e-02	   8.8129316e-01	   4.3564947e-02	   8.0870176e-01	   4.3295417e-02	   8.7337057e-01	   6.1716090e-02	   8.6049331e-01	   5.6378592e-02	   8.4940887e-01	   7.9768925e-02	   7.7177616e-01	   9.8329240e-02	   8.4726410e-01	   1.2617727e-01	   8.2189742e-01	   1.2929780e-01	   8.1934309e-01	   1.1742489e-01	   8.3636674e-01	   1.3801864e-01	   8.2608429e-01	   1.8594042e-01	   8.3682700e-01	   1.6493970e-01	   8.4058511e-01	   1.8054907e-01	   8.2870284e-01	   1.9852018e-01	   8.5041221e-01	   2.2656874e-01	   9.1393636e-01	   2.7904481e-01	   9.9877139e-01	
   8.2629772e-01	   2.3100008e-01	   8.8751269e-01	   2.2367805e-01	   7.4361378e-01	   2.4850894e-01	   8.4362714e-01	   2.2250569e-01	   9.8663651e-01	   1.6470311e-01	   9.6035526e-01	   1.5131549e-01	   1.5483258e-01	   8.9915879e-01	   1.7089900e-01	   8.7468911e-01	   1.3208036e-01	   9.0633458e-01	   1.5433243e-01	   9.2586241e-01	   1.2777161e-01	   9.1778472e-01	   1.3239097e-01	   9.1205776e-01	   1.5557533e-01	   9.7814096e-01	   1.2689744e-01	   8.8845713e-01	   1.4316227e-01	   9.4837188e-01	   1.1244777e-01	   9.0693943e-01	   1.3881885e-01	   9.1785377e-01	   9.7783571e-02	   8.5846571e-01	   1.0586758e-01	   8.9501599e-01	   1.0943010e-01	   9.1228814e-01	   1.2584826e-01	   9.5157934e-01	   1.2164761e-01	   8.6530983e-01	   1.3624232e-01	   9.3344427e-01	   1.0678803e-01	   8.9092714e-01	   1.1612238e-01	   8.8871259e-01	   9.4501445e-02	   8.8081367e-01	   8.6057297e-02	   1.2724358e-01	   8.6977144e-01	   1.3200778e-01	   9.1272760e-01	   1.1298008e-01	   8.5327466e-01	   1.1632525e-01	   1.1889456e-01	   9.1005301e-01	   9.8362522e-02	   9.1345332e-01	   8.7388930e-02	   9.0807268e-01	   6.2028851e-02	   7.3017608e-02	   9.3749409e-01	   8.6270201e-02	   9.3958933e-01	   1.0696229e-01	   9.3705611e-01	   8.6453523e-02	   9.5050795e-01	   7.6888348e-02	   9.6222229e-01	   6.1798184e-02	   9.2751613e-01	   4.5941378e-02	   8.5550321e-01	   4.6099033e-02	   9.1655576e-01	   6.3813394e-02	   9.0383885e-01	   5.8773409e-02	   8.9196768e-01	   8.1934066e-02	   8.1450164e-01	   1.0047476e-01	   8.8322824e-01	   1.2778119e-01	   8.5957114e-01	   1.3138459e-01	   8.5877886e-01	   1.1933359e-01	   8.7194698e-01	   1.3912164e-01	   8.5920147e-01	   1.8731300e-01	   8.7523705e-01	   1.6677859e-01	   8.8245361e-01	   1.8260508e-01	   8.6989386e-01	   2.0042508e-01	   8.9223596e-01	   2.2852628e-01	   9.5217026e-01	   2.8104450e-01	   1.0352583e+00	
   8.5967976e-01	   2.3182004e-01	   9.1830942e-01	   2.2501426e-01	   7.7675055e-01	   2.4993679e-01	   8.7850308e-01	   2.2324125e-01	   1.0220345e+00	   1.6638839e-01	   9.9713666e-01	   1.5238810e-01	   1.5622243e-01	   9.3132881e-01	   1.7253245e-01	   9.1406869e-01	   1.3382563e-01	   9.3870246e-01	   1.5619085e-01	   9.6143110e-01	   1.2969921e-01	   9.5446603e-01	   1.3481606e-01	   9.4501713e-01	   1.5750714e-01	   1.0127824e+00	   1.2885457e-01	   9.2342574e-01	   1.4505059e-01	   9.8581572e-01	   1.1480323e-01	   9.4352473e-01	   1.4067468e-01	   9.5909600e-01	   9.9698318e-02	   9.0221997e-01	   1.0796100e-01	   9.3829623e-01	   1.1133645e-01	   9.4818199e-01	   1.2771527e-01	   9.8800637e-01	   1.2354873e-01	   9.0460359e-01	   1.3848244e-01	   9.7499148e-01	   1.0929486e-01	   9.2972689e-01	   1.1788432e-01	   9.2897435e-01	   9.6541683e-02	   9.2178338e-01	   8.8319751e-02	   1.2910850e-01	   9.0947860e-01	   1.3458654e-01	   9.5216401e-01	   1.1496363e-01	   8.9550457e-01	   1.1824768e-01	   1.2077987e-01	   9.5344788e-01	   1.0089525e-01	   9.5730501e-01	   8.9541844e-02	   9.5450359e-01	   6.4429181e-02	   7.5528641e-02	   9.7795827e-01	   8.9024261e-02	   9.7838701e-01	   1.0895989e-01	   9.7753780e-01	   8.8810017e-02	   9.9109080e-01	   7.9522804e-02	   1.0018433e+00	   6.4027989e-02	   9.7093159e-01	   4.8319348e-02	   8.9991621e-01	   4.8904683e-02	   9.5682495e-01	   6.5991177e-02	   9.4450456e-01	   6.1231410e-02	   9.3177860e-01	   8.4081689e-02	   8.5502216e-01	   1.0266670e-01	   9.1642443e-01	   1.2939936e-01	   8.9461111e-01	   1.3344155e-01	   8.9574781e-01	   1.2120289e-01	   9.0485912e-01	   1.4021669e-01	   8.8968563e-01	   1.8863679e-01	   9.1128657e-01	   1.6861096e-01	   9.2199817e-01	   1.8464728e-01	   9.0900599e-01	   2.0238776e-01	   9.3212867e-01	   2.3051326e-01	   9.8811937e-01	   2.8302568e-01	   1.0690295e+00	
   8.9109555e-01	   2.3276142e-01	   9.4648158e-01	   2.2633011e-01	   8.0801768e-01	   2.5135188e-01	   9.1120025e-01	   2.2402511e-01	   1.0544488e+00	   1.6811634e-01	   1.0308706e+00	   1.5349258e-01	   1.5760113e-01	   9.6047451e-01	   1.7417195e-01	   9.5077325e-01	   1.3563349e-01	   9.6795522e-01	   1.5806265e-01	   9.9398932e-01	   1.3164885e-01	   9.8799032e-01	   1.3728647e-01	   9.7477344e-01	   1.5945455e-01	   1.0442306e+00	   1.3084089e-01	   9.5536227e-01	   1.4689846e-01	   1.0201464e+00	   1.1714223e-01	   9.7684330e-01	   1.4254078e-01	   9.9744525e-01	   1.0158167e-01	   9.4323597e-01	   1.1009551e-01	   9.7865370e-01	   1.1323463e-01	   9.8090560e-01	   1.2960111e-01	   1.0212468e+00	   1.2546196e-01	   9.4096119e-01	   1.4082590e-01	   1.0136332e+00	   1.1180725e-01	   9.6551132e-01	   1.1965936e-01	   9.6630828e-01	   9.8634763e-02	   9.5985444e-01	   9.0618173e-02	   1.3100162e-01	   9.4640859e-01	   1.3717866e-01	   9.8849015e-01	   1.1700624e-01	   9.3496179e-01	   1.2021849e-01	   1.2266557e-01	   9.9382057e-01	   1.0345567e-01	   9.9811648e-01	   9.1713250e-02	   9.9805831e-01	   6.6891005e-02	   7.8079325e-02	   1.0150551e+00	   9.1806041e-02	   1.0138846e+00	   1.1093616e-01	   1.0148018e+00	   9.1171363e-02	   1.0284220e+00	   8.2162763e-02	   1.0382283e+00	   6.6286162e-02	   1.0112192e+00	   5.0696406e-02	   9.4155491e-01	   5.1702566e-02	   9.9390805e-01	   6.8246322e-02	   9.8220006e-01	   6.3753414e-02	   9.6855307e-01	   8.6211453e-02	   8.9294546e-01	   1.0488985e-01	   9.4666840e-01	   1.3103152e-01	   9.2676392e-01	   1.3545201e-01	   9.2996481e-01	   1.2303056e-01	   9.3489030e-01	   1.4130657e-01	   9.1734467e-01	   1.8991425e-01	   9.4468232e-01	   1.7043107e-01	   9.5887512e-01	   1.8667588e-01	   9.4564628e-01	   2.0440511e-01	   9.6967349e-01	   2.3253252e-01	   1.0214777e+00	   2.8498665e-01	   1.0998696e+00	
   9.2031313e-01	   2.3384552e-01	   9.7191453e-01	   2.2763870e-01	   8.3711596e-01	   2.5274297e-01	   9.4145355e-01	   2.2486527e-01	   1.0837630e+00	   1.6987658e-01	   1.0614160e+00	   1.5471062e-01	   1.5898324e-01	   9.8648608e-01	   1.7581281e-01	   9.8454575e-01	   1.3749283e-01	   9.9399811e-01	   1.5993788e-01	   1.0234235e+00	   1.3362175e-01	   1.0182098e+00	   1.3979192e-01	   1.0012185e+00	   1.6140146e-01	   1.0723926e+00	   1.3285241e-01	   9.8410670e-01	   1.4869945e-01	   1.0512240e+00	   1.1945838e-01	   1.0067403e+00	   1.4442455e-01	   1.0326629e+00	   1.0342150e-01	   9.8119189e-01	   1.1227326e-01	   1.0158068e+00	   1.1514235e-01	   1.0103126e+00	   1.3151320e-01	   1.0511891e+00	   1.2738169e-01	   9.7411894e-01	   1.4325399e-01	   1.0491231e+00	   1.1431785e-01	   9.9808782e-01	   1.2144780e-01	   1.0004860e+00	   1.0077796e-01	   9.9480666e-01	   9.2937702e-02	   1.3291618e-01	   9.8029892e-01	   1.3977542e-01	   1.0214920e+00	   1.1910849e-01	   9.7134098e-01	   1.2223612e-01	   1.2456079e-01	   1.0309051e+00	   1.0604218e-01	   1.0356219e+00	   9.3915793e-02	   1.0384175e+00	   6.9413241e-02	   8.0661952e-02	   1.0485969e+00	   9.4598521e-02	   1.0459344e+00	   1.1288867e-01	   1.0486449e+00	   9.3531214e-02	   1.0623183e+00	   8.4800043e-02	   1.0712358e+00	   6.8567543e-02	   1.0481518e+00	   5.3070096e-02	   9.8012522e-01	   5.4484852e-02	   1.0276275e+00	   7.0576491e-02	   1.0167268e+00	   6.6337424e-02	   1.0020927e+00	   8.8325326e-02	   9.2797518e-01	   1.0713218e-01	   9.7384768e-01	   1.3267729e-01	   9.5586292e-01	   1.3740559e-01	   9.6123072e-01	   1.2481770e-01	   9.6190414e-01	   1.4239503e-01	   9.4206293e-01	   1.9114812e-01	   9.7521517e-01	   1.7223696e-01	   9.9282749e-01	   1.8869096e-01	   9.7951306e-01	   2.0647138e-01	   1.0045431e+00	   2.3458862e-01	   1.0520195e+00	   2.8692978e-01	   1.1276443e+00	
   9.4716810e-01	   2.3508299e-01	   9.9455894e-01	   2.2895355e-01	   8.6382275e-01	   2.5410064e-01	   9.6907351e-01	   2.2576708e-01	   1.1099325e+00	   1.7165815e-01	   1.0887013e+00	   1.5614444e-01	   1.6038375e-01	   1.0093271e+00	   1.7745198e-01	   1.0152181e+00	   1.3939334e-01	   1.0168051e+00	   1.6180728e-01	   1.0496902e+00	   1.3561764e-01	   1.0450544e+00	   1.4232152e-01	   1.0243169e+00	   1.6333286e-01	   1.0972437e+00	   1.3488365e-01	   1.0095808e+00	   1.5045114e-01	   1.0789855e+00	   1.2174639e-01	   1.0331464e+00	   1.4633203e-01	   1.0645976e+00	   1.0521153e-01	   1.0158624e+00	   1.1449323e-01	   1.0495659e+00	   1.1707397e-01	   1.0363344e+00	   1.3346031e-01	   1.0777932e+00	   1.2930330e-01	   1.0039079e+00	   1.4574520e-01	   1.0812977e+00	   1.1681990e-01	   1.0273467e+00	   1.2325019e-01	   1.0313672e+00	   1.0296789e-01	   1.0265051e+00	   9.5265863e-02	   1.3484596e-01	   1.0109733e+00	   1.4237072e-01	   1.0510449e+00	   1.2126739e-01	   1.0044315e+00	   1.2429780e-01	   1.2647454e-01	   1.0645255e+00	   1.0865142e-01	   1.0696459e+00	   9.6163966e-02	   1.0753518e+00	   7.1994969e-02	   8.3271099e-02	   1.0784861e+00	   9.7385162e-02	   1.0744660e+00	   1.1481603e-01	   1.0789478e+00	   9.5883715e-02	   1.0926818e+00	   8.7429384e-02	   1.1007987e+00	   7.0867297e-02	   1.0815882e+00	   5.5438589e-02	   1.0154219e+00	   5.7245993e-02	   1.0578898e+00	   7.2979711e-02	   1.0479692e+00	   6.8977991e-02	   1.0322818e+00	   9.0427156e-02	   9.5990714e-01	   1.0938553e-01	   9.9791334e-01	   1.3433554e-01	   9.8182001e-01	   1.3929838e-01	   9.8942523e-01	   1.2656748e-01	   9.8583393e-01	   1.4348766e-01	   9.6379424e-01	   1.9234145e-01	   1.0027541e+00	   1.7403034e-01	   1.0236796e+00	   1.9069234e-01	   1.0103938e+00	   2.0857896e-01	   1.0364986e+00	   2.3668651e-01	   1.0795958e+00	   2.8886103e-01	   1.1522916e+00	
   9.7155891e-01	   2.3647277e-01	   1.0144221e+00	   2.3028697e-01	   8.8798786e-01	   2.5541734e-01	   9.9394266e-01	   2.2673241e-01	   1.1329753e+00	   1.7345094e-01	   1.1127158e+00	   1.5791799e-01	   1.6181562e-01	   1.0290236e+00	   1.7908801e-01	   1.0427015e+00	   1.4132742e-01	   1.0364077e+00	   1.6366377e-01	   1.0728032e+00	   1.3763507e-01	   1.0685216e+00	   1.4486352e-01	   1.0440958e+00	   1.6523636e-01	   1.1188169e+00	   1.3692757e-01	   1.0317769e+00	   1.5215398e-01	   1.1034338e+00	   1.2400279e-01	   1.0560672e+00	   1.4826724e-01	   1.0931759e+00	   1.0695189e-01	   1.0471093e+00	   1.1675197e-01	   1.0798222e+00	   1.1903806e-01	   1.0589698e+00	   1.3545103e-01	   1.1010785e+00	   1.3122236e-01	   1.0302451e+00	   1.4827705e-01	   1.1100708e+00	   1.1930698e-01	   1.0532516e+00	   1.2506785e-01	   1.0588904e+00	   1.0520157e-01	   1.0548904e+00	   9.7593073e-02	   1.3678642e-01	   1.0383339e+00	   1.4495972e-01	   1.0771048e+00	   1.2347806e-01	   1.0341108e+00	   1.2639954e-01	   1.2841463e-01	   1.0945874e+00	   1.1127732e-01	   1.1000943e+00	   9.8472247e-02	   1.1087157e+00	   7.4635715e-02	   8.5904054e-02	   1.1047063e+00	   1.0014967e-01	   1.0994765e+00	   1.1671755e-01	   1.1056667e+00	   9.8224418e-02	   1.1194916e+00	   9.0048566e-02	   1.1269163e+00	   7.3180606e-02	   1.1114653e+00	   5.7801339e-02	   1.0473221e+00	   5.9982614e-02	   1.0846754e+00	   7.5453497e-02	   1.0758840e+00	   7.1666007e-02	   1.0590786e+00	   9.2521865e-02	   9.8862167e-01	   1.1164527e-01	   1.0188714e+00	   1.3600401e-01	   1.0046159e+00	   1.4113243e-01	   1.0144977e+00	   1.2828469e-01	   1.0066741e+00	   1.4459281e-01	   9.8255257e-01	   1.9349798e-01	   1.0272387e+00	   1.7581628e-01	   1.0513306e+00	   1.9267952e-01	   1.0381590e+00	   2.1071946e-01	   1.0653847e+00	   2.3883037e-01	   1.1041281e+00	   2.9078935e-01	   1.1738129e+00	
   9.9344014e-01	   2.3800243e-01	   1.0315596e+00	   2.3164910e-01	   9.0952710e-01	   2.5668736e-01	   1.0160089e+00	   2.2775911e-01	   1.1529612e+00	   1.7524663e-01	   1.1335013e+00	   1.6017712e-01	   1.6328726e-01	   1.0456528e+00	   1.8072034e-01	   1.0669766e+00	   1.4329098e-01	   1.0528840e+00	   1.6550350e-01	   1.0928211e+00	   1.3967239e-01	   1.0886658e+00	   1.4740507e-01	   1.0606338e+00	   1.6710348e-01	   1.1371930e+00	   1.3897613e-01	   1.0507450e+00	   1.5380971e-01	   1.1246261e+00	   1.2622667e-01	   1.0755709e+00	   1.5023173e-01	   1.1183905e+00	   1.0864896e-01	   1.0748708e+00	   1.1904467e-01	   1.1065372e+00	   1.2103686e-01	   1.0782743e+00	   1.3749237e-01	   1.1211131e+00	   1.3313406e-01	   1.0531231e+00	   1.5082783e-01	   1.1354253e+00	   1.2177295e-01	   1.0758289e+00	   1.2690309e-01	   1.0830623e+00	   1.0747697e-01	   1.0799680e+00	   9.9912721e-02	   1.3873501e-01	   1.0623523e+00	   1.4753721e-01	   1.0996982e+00	   1.2573585e-01	   1.0603358e+00	   1.2853638e-01	   1.3038701e-01	   1.1210692e+00	   1.1391089e-01	   1.1269439e+00	   1.0085273e-01	   1.1384403e+00	   7.7335275e-02	   8.8560276e-02	   1.1273111e+00	   1.0287570e-01	   1.1210202e+00	   1.1859356e-01	   1.1288234e+00	   1.0055084e-01	   1.1427930e+00	   9.2657698e-02	   1.1496455e+00	   7.5502733e-02	   1.1377880e+00	   6.0159540e-02	   1.0757768e+00	   6.2693208e-02	   1.1080271e+00	   7.7993658e-02	   1.1004893e+00	   7.4389120e-02	   1.0825047e+00	   9.4614462e-02	   1.0140736e+00	   1.1390917e-01	   1.0367740e+00	   1.3767945e-01	   1.0242891e+00	   1.4291467e-01	   1.0364565e+00	   1.2997592e-01	   1.0244704e+00	   1.4572223e-01	   9.9840129e-01	   1.9462233e-01	   1.0486707e+00	   1.7760252e-01	   1.0757475e+00	   1.9465168e-01	   1.0627545e+00	   2.1288475e-01	   1.0911227e+00	   2.4102307e-01	   1.1256010e+00	   2.9272595e-01	   1.1922624e+00	
   1.0128147e+00	   2.3964960e-01	   1.0460663e+00	   2.3304776e-01	   9.2841385e-01	   2.5790680e-01	   1.0352767e+00	   2.2884101e-01	   1.1700014e+00	   1.7703902e-01	   1.1511430e+00	   1.6308873e-01	   1.6480118e-01	   1.0593316e+00	   1.8234828e-01	   1.0880824e+00	   1.4528304e-01	   1.0663489e+00	   1.6732668e-01	   1.1098372e+00	   1.4172869e-01	   1.1055895e+00	   1.4993217e-01	   1.0740498e+00	   1.6893054e-01	   1.1524899e+00	   1.4102151e-01	   1.0665799e+00	   1.5542009e-01	   1.1426627e+00	   1.2842016e-01	   1.0917765e+00	   1.5222452e-01	   1.1402896e+00	   1.1031461e-01	   1.0991504e+00	   1.2136606e-01	   1.1297320e+00	   1.2306752e-01	   1.0943499e+00	   1.3958879e-01	   1.1380040e+00	   1.3503307e-01	   1.0725979e+00	   1.5337802e-01	   1.1574042e+00	   1.2421225e-01	   1.0951561e+00	   1.2875890e-01	   1.1039468e+00	   1.0979308e-01	   1.1017968e+00	   1.0222074e-01	   1.4069050e-01	   1.0830608e+00	   1.5009665e-01	   1.1189105e+00	   1.2803764e-01	   1.0831323e+00	   1.3070267e-01	   1.3239563e-01	   1.1440109e+00	   1.1654066e-01	   1.1502330e+00	   1.0331296e-01	   1.1645252e+00	   8.0093039e-02	   9.1240248e-02	   1.1464112e+00	   1.0554719e-01	   1.1391984e+00	   1.2044633e-01	   1.1484967e+00	   1.0286224e-01	   1.1626864e+00	   9.5258110e-02	   1.1690914e+00	   7.7829611e-02	   1.1606204e+00	   6.2516216e-02	   1.1008004e+00	   6.5377851e-02	   1.1280381e+00	   8.0593166e-02	   1.1218533e+00	   7.7132656e-02	   1.1026350e+00	   9.6709139e-02	   1.0362810e+00	   1.1617578e-01	   1.0517113e+00	   1.3935798e-01	   1.0409253e+00	   1.4465545e-01	   1.0553586e+00	   1.3164994e-01	   1.0393105e+00	   1.4689068e-01	   1.0114422e+00	   1.9572001e-01	   1.0671045e+00	   1.7939843e-01	   1.0969575e+00	   1.9660755e-01	   1.0841904e+00	   2.1506780e-01	   1.1137009e+00	   2.4326574e-01	   1.1440526e+00	   2.9468355e-01	   1.2077360e+00	
   1.0297252e+00	   2.4138408e-01	   1.0580682e+00	   2.3448857e-01	   9.4466933e-01	   2.5907339e-01	   1.0517980e+00	   2.2996846e-01	   1.1842378e+00	   1.7882420e-01	   1.1657617e+00	   1.6683841e-01	   1.6635422e-01	   1.0702068e+00	   1.8397013e-01	   1.1061060e+00	   1.4730476e-01	   1.0769452e+00	   1.6913768e-01	   1.1239719e+00	   1.4380386e-01	   1.1194334e+00	   1.5243011e-01	   1.0844929e+00	   1.7071891e-01	   1.1648549e+00	   1.4305741e-01	   1.0794107e+00	   1.5698668e-01	   1.1576758e+00	   1.3058857e-01	   1.1048413e+00	   1.5424238e-01	   1.1589663e+00	   1.1196488e-01	   1.1200067e+00	   1.2371089e-01	   1.1494780e+00	   1.2512434e-01	   1.1073349e+00	   1.4174206e-01	   1.1518884e+00	   1.3691423e-01	   1.0887776e+00	   1.5591144e-01	   1.1761012e+00	   1.2662061e-01	   1.1113509e+00	   1.3063811e-01	   1.1216538e+00	   1.1214967e-01	   1.1204776e+00	   1.0451486e-01	   1.4265165e-01	   1.1005432e+00	   1.5263030e-01	   1.1348748e+00	   1.3038187e-01	   1.1025833e+00	   1.3289232e-01	   1.3444263e-01	   1.1635036e+00	   1.1915415e-01	   1.1700525e+00	   1.0585456e-01	   1.1870307e+00	   8.2907006e-02	   9.3944193e-02	   1.1621616e+00	   1.0814984e-01	   1.1541496e+00	   1.2228121e-01	   1.1648127e+00	   1.0515871e-01	   1.1793151e+00	   9.7851321e-02	   1.1853979e+00	   8.0158751e-02	   1.1800758e+00	   6.4875934e-02	   1.1224600e+00	   6.8038031e-02	   1.1448411e+00	   8.3241510e-02	   1.1400849e+00	   7.9880826e-02	   1.1195866e+00	   9.8808675e-02	   1.0553142e+00	   1.1844260e-01	   1.0638032e+00	   1.4103543e-01	   1.0546456e+00	   1.4636697e-01	   1.0712989e+00	   1.3331740e-01	   1.0513151e+00	   1.4811399e-01	   1.0218047e+00	   1.9679735e-01	   1.0826376e+00	   1.8121348e-01	   1.1150386e+00	   1.9854504e-01	   1.1025313e+00	   2.1726314e-01	   1.1331643e+00	   2.4555755e-01	   1.1595664e+00	   2.9667555e-01	   1.2203620e+00	
   1.0442461e+00	   2.4317063e-01	   1.0677130e+00	   2.3597488e-01	   9.5835215e-01	   2.6018656e-01	   1.0656625e+00	   2.3112954e-01	   1.1958319e+00	   1.8060034e-01	   1.1775061e+00	   1.7162555e-01	   1.6793944e-01	   1.0784444e+00	   1.8558305e-01	   1.1211717e+00	   1.4935829e-01	   1.0848357e+00	   1.7094440e-01	   1.1353666e+00	   1.4589798e-01	   1.1303679e+00	   1.5488442e-01	   1.0921329e+00	   1.7247463e-01	   1.1744560e+00	   1.4507989e-01	   1.0893916e+00	   1.5851154e-01	   1.1698196e+00	   1.3274000e-01	   1.1149493e+00	   1.5628030e-01	   1.1745490e+00	   1.1361814e-01	   1.1375446e+00	   1.2607374e-01	   1.1658890e+00	   1.2720086e-01	   1.1173948e+00	   1.4395163e-01	   1.1629267e+00	   1.3877388e-01	   1.1018102e+00	   1.5841575e-01	   1.1916494e+00	   1.2899585e-01	   1.1245611e+00	   1.3254240e-01	   1.1363290e+00	   1.1454694e-01	   1.1361429e+00	   1.0679375e-01	   1.4461595e-01	   1.1149261e+00	   1.5513030e-01	   1.1477601e+00	   1.3276747e-01	   1.1188166e+00	   1.3509885e-01	   1.3652859e-01	   1.1796783e+00	   1.2173956e-01	   1.1865360e+00	   1.0847301e-01	   1.2060679e+00	   8.5772958e-02	   9.6670980e-02	   1.1747490e+00	   1.1067318e-01	   1.1660399e+00	   1.2410735e-01	   1.1779354e+00	   1.0744011e-01	   1.1928531e+00	   1.0043828e-01	   1.1987372e+00	   8.2489966e-02	   1.1963073e+00	   6.7244264e-02	   1.1408660e+00	   7.0676549e-02	   1.1585969e+00	   8.5924825e-02	   1.1553238e+00	   8.2618099e-02	   1.1335087e+00	   1.0091414e-01	   1.0712847e+00	   1.2070490e-01	   1.0731923e+00	   1.4270748e-01	   1.0655974e+00	   1.4806200e-01	   1.0844010e+00	   1.3498958e-01	   1.0606308e+00	   1.4940608e-01	   1.0296369e+00	   1.9786156e-01	   1.0953998e+00	   1.8305547e-01	   1.1301098e+00	   2.0046095e-01	   1.1178850e+00	   2.1946669e-01	   1.1496036e+00	   2.4789521e-01	   1.1722617e+00	   2.9871504e-01	   1.2302917e+00	
   1.0564749e+00	   2.4497219e-01	   1.0751609e+00	   2.3750735e-01	   9.6954793e-01	   2.6124762e-01	   1.0769885e+00	   2.3231146e-01	   1.2049557e+00	   1.8236766e-01	   1.1865451e+00	   1.7765487e-01	   1.6954886e-01	   1.0842215e+00	   1.8718362e-01	   1.1334301e+00	   1.5144585e-01	   1.0901955e+00	   1.7275705e-01	   1.1441785e+00	   1.4801045e-01	   1.1385838e+00	   1.5728236e-01	   1.0971532e+00	   1.7420741e-01	   1.1814756e+00	   1.4708741e-01	   1.0966958e+00	   1.5999839e-01	   1.1792616e+00	   1.3488447e-01	   1.1223003e+00	   1.5833211e-01	   1.1871930e+00	   1.1529319e-01	   1.1519071e+00	   1.2844873e-01	   1.1791134e+00	   1.2929127e-01	   1.1247136e+00	   1.4621522e-01	   1.1712957e+00	   1.4061117e-01	   1.1118742e+00	   1.6088256e-01	   1.2042112e+00	   1.3133854e-01	   1.1349563e+00	   1.3447162e-01	   1.1481441e+00	   1.1698530e-01	   1.1489477e+00	   1.0905648e-01	   1.4657891e-01	   1.1263682e+00	   1.5759008e-01	   1.1577606e+00	   1.3519247e-01	   1.1319933e+00	   1.3731551e-01	   1.3865253e-01	   1.1926963e+00	   1.2428764e-01	   1.1998510e+00	   1.1115826e-01	   1.2217902e+00	   8.8684329e-02	   9.9417362e-02	   1.1843810e+00	   1.1311257e-01	   1.1750552e+00	   1.2593769e-01	   1.1880574e+00	   1.0970546e-01	   1.2034933e+00	   1.0301889e-01	   1.2093005e+00	   8.4825482e-02	   1.2094988e+00	   6.9627210e-02	   1.1561632e+00	   7.3297378e-02	   1.1694854e+00	   8.8626970e-02	   1.1677319e+00	   8.5330601e-02	   1.1445730e+00	   1.0302480e-01	   1.0843348e+00	   1.2295525e-01	   1.0800381e+00	   1.4436976e-01	   1.0739445e+00	   1.4975279e-01	   1.0948098e+00	   1.3667644e-01	   1.0674248e+00	   1.5077602e-01	   1.0350972e+00	   1.9892103e-01	   1.1055436e+00	   1.8492904e-01	   1.1423204e+00	   2.0235074e-01	   1.1303930e+00	   2.2167534e-01	   1.1631442e+00	   2.5027254e-01	   1.1822862e+00	   3.0081370e-01	   1.2376920e+00	
   1.0665251e+00	   2.4675351e-01	   1.0805761e+00	   2.3908342e-01	   9.7835939e-01	   2.6226021e-01	   1.0859143e+00	   2.3350217e-01	   1.2117822e+00	   1.8412836e-01	   1.1930597e+00	   1.8512324e-01	   1.7117605e-01	   1.0877192e+00	   1.8876909e-01	   1.1430488e+00	   1.5356906e-01	   1.0932067e+00	   1.7458645e-01	   1.1505760e+00	   1.5013948e-01	   1.1442837e+00	   1.5961452e-01	   1.0997447e+00	   1.7592940e-01	   1.1861034e+00	   1.4908052e-01	   1.1015086e+00	   1.6145360e-01	   1.1861766e+00	   1.3703252e-01	   1.1271012e+00	   1.6039114e-01	   1.1970738e+00	   1.1700749e-01	   1.1632673e+00	   1.3082940e-01	   1.1893272e+00	   1.3139086e-01	   1.1294855e+00	   1.4852922e-01	   1.1771831e+00	   1.4242869e-01	   1.1191688e+00	   1.6330717e-01	   1.2139682e+00	   1.3365211e-01	   1.1427212e+00	   1.3642362e-01	   1.1572885e+00	   1.1946511e-01	   1.1590627e+00	   1.1130257e-01	   1.4853423e-01	   1.1350520e+00	   1.6000516e-01	   1.1650860e+00	   1.3765289e-01	   1.1422974e+00	   1.3953554e-01	   1.4081163e-01	   1.2027401e+00	   1.2679327e-01	   1.2101893e+00	   1.1389589e-01	   1.2343821e+00	   9.1632907e-02	   1.0217759e-01	   1.1912768e+00	   1.1547012e-01	   1.1813935e+00	   1.2778803e-01	   1.1953903e+00	   1.1195295e-01	   1.2114381e+00	   1.0559189e-01	   1.2172880e+00	   8.7169264e-02	   1.2198559e+00	   7.2030767e-02	   1.1685231e+00	   7.5905454e-02	   1.1776974e+00	   9.1331387e-02	   1.1774849e+00	   8.8007280e-02	   1.1529656e+00	   1.0513809e-01	   1.0946284e+00	   1.2518404e-01	   1.0845112e+00	   1.4601803e-01	   1.0798600e+00	   1.5145009e-01	   1.1026849e+00	   1.3838473e-01	   1.0718798e+00	   1.5222637e-01	   1.0383480e+00	   1.9998556e-01	   1.1132352e+00	   1.8683479e-01	   1.1518408e+00	   2.0420894e-01	   1.1402212e+00	   2.2388624e-01	   1.1739377e+00	   2.5268020e-01	   1.1898076e+00	   3.0298089e-01	   1.2427393e+00	
   1.0745189e+00	   2.4848476e-01	   1.0841185e+00	   2.4069728e-01	   9.8489765e-01	   2.6323093e-01	   1.0925898e+00	   2.3469183e-01	   1.2164799e+00	   1.8588620e-01	   1.1972359e+00	   1.9420092e-01	   1.7281753e-01	   1.0891165e+00	   1.9033847e-01	   1.1502039e+00	   1.5572834e-01	   1.0940526e+00	   1.7644225e-01	   1.1547334e+00	   1.5228213e-01	   1.1476740e+00	   1.6187610e-01	   1.1001008e+00	   1.7765391e-01	   1.1885312e+00	   1.5106139e-01	   1.1040224e+00	   1.6288668e-01	   1.1907412e+00	   1.3919377e-01	   1.1295576e+00	   1.6245064e-01	   1.2043801e+00	   1.1877560e-01	   1.1718203e+00	   1.3320905e-01	   1.1967271e+00	   1.3349565e-01	   1.1319090e+00	   1.5088853e-01	   1.1807825e+00	   1.4423222e-01	   1.1239062e+00	   1.6568795e-01	   1.2211134e+00	   1.3594233e-01	   1.1480494e+00	   1.3839479e-01	   1.1639623e+00	   1.2198612e-01	   1.1666684e+00	   1.1353236e-01	   1.5047497e-01	   1.1411739e+00	   1.6237325e-01	   1.1699526e+00	   1.4014232e-01	   1.1499261e+00	   1.4175239e-01	   1.4300103e-01	   1.2100074e+00	   1.2925668e-01	   1.2177583e+00	   1.1666862e-01	   1.2440506e+00	   9.4610118e-02	   1.0494347e-01	   1.1956595e+00	   1.1775414e-01	   1.1852591e+00	   1.2967531e-01	   1.2001553e+00	   1.1418047e-01	   1.2168912e+00	   1.0815490e-01	   1.2229018e+00	   8.9525824e-02	   1.2275970e+00	   7.4460605e-02	   1.1781361e+00	   7.8506450e-02	   1.1834284e+00	   9.4023204e-02	   1.1847649e+00	   9.0640605e-02	   1.1588806e+00	   1.0724983e-01	   1.1023429e+00	   1.2738039e-01	   1.0867877e+00	   1.4764873e-01	   1.0835208e+00	   1.5316208e-01	   1.1081953e+00	   1.4011713e-01	   1.0741890e+00	   1.5375318e-01	   1.0395506e+00	   2.0106610e-01	   1.1186478e+00	   1.8876926e-01	   1.1588546e+00	   2.0603003e-01	   1.1475511e+00	   2.2609618e-01	   1.1821529e+00	   2.5510616e-01	   1.1950059e+00	   3.0522294e-01	   1.2456141e+00	
   1.0805810e+00	   2.5014430e-01	   1.0859385e+00	   2.4234054e-01	   9.8927493e-01	   2.6416960e-01	   1.0971680e+00	   2.3587418e-01	   1.2192083e+00	   1.8764584e-01	   1.1992581e+00	   2.0500680e-01	   1.7447287e-01	   1.0885871e+00	   1.9189321e-01	   1.1550738e+00	   1.5792248e-01	   1.0929147e+00	   1.7833144e-01	   1.1568261e+00	   1.5443490e-01	   1.1489587e+00	   1.6406743e-01	   1.0984125e+00	   1.7939409e-01	   1.1889475e+00	   1.5303353e-01	   1.1044309e+00	   1.6430981e-01	   1.1931323e+00	   1.4137565e-01	   1.1298684e+00	   1.6450416e-01	   1.2093083e+00	   1.2060830e-01	   1.1777745e+00	   1.3558143e-01	   1.2015234e+00	   1.3560186e-01	   1.1321818e+00	   1.5328592e-01	   1.1822889e+00	   1.4602967e-01	   1.1263044e+00	   1.6802586e-01	   1.2258449e+00	   1.3821617e-01	   1.1511392e+00	   1.4038106e-01	   1.1683698e+00	   1.2454678e-01	   1.1719513e+00	   1.1574746e-01	   1.5239528e-01	   1.1449374e+00	   1.6469365e-01	   1.1725761e+00	   1.4265210e-01	   1.1550823e+00	   1.4395999e-01	   1.4521389e-01	   1.2147052e+00	   1.3168379e-01	   1.2227728e+00	   1.1945807e-01	   1.2510154e+00	   9.7608284e-02	   1.0770494e-01	   1.1977499e+00	   1.1997728e-01	   1.1868575e+00	   1.3161537e-01	   1.2025751e+00	   1.1638610e-01	   1.2200526e+00	   1.1070475e-01	   1.2263400e+00	   9.1899034e-02	   1.2329458e+00	   7.6921740e-02	   1.1852048e+00	   8.1106503e-02	   1.1868750e+00	   9.6690933e-02	   1.1897542e+00	   9.3226674e-02	   1.1625147e+00	   1.0935479e-01	   1.1076621e+00	   1.2953308e-01	   1.0870445e+00	   1.4925985e-01	   1.0851036e+00	   1.5489320e-01	   1.1115146e+00	   1.4187256e-01	   1.0745494e+00	   1.5534769e-01	   1.0388605e+00	   2.0217392e-01	   1.1219570e+00	   1.9072534e-01	   1.1635521e+00	   2.0780981e-01	   1.1525726e+00	   2.2830121e-01	   1.1879697e+00	   2.5753685e-01	   1.1980663e+00	   3.0754263e-01	   1.2464969e+00	
   1.0848335e+00	   2.5172004e-01	   1.0861722e+00	   2.4400366e-01	   9.9159880e-01	   2.6508915e-01	   1.0997984e+00	   2.3704736e-01	   1.2201158e+00	   1.8941195e-01	   1.1993040e+00	   2.1757749e-01	   1.7614402e-01	   1.0862962e+00	   1.9343703e-01	   1.1578341e+00	   1.6014850e-01	   1.0899686e+00	   1.8025739e-01	   1.1570260e+00	   1.5659424e-01	   1.1483345e+00	   1.6619333e-01	   1.0948650e+00	   1.8116163e-01	   1.1875330e+00	   1.5500167e-01	   1.1029241e+00	   1.6573656e-01	   1.1935257e+00	   1.4358242e-01	   1.1282211e+00	   1.6654554e-01	   1.2120575e+00	   1.2251202e-01	   1.1813432e+00	   1.3794116e-01	   1.2039323e+00	   1.3770551e-01	   1.1304979e+00	   1.5571140e-01	   1.1818939e+00	   1.4782974e-01	   1.1265802e+00	   1.7032383e-01	   1.2283612e+00	   1.4048058e-01	   1.1521878e+00	   1.4237921e-01	   1.1707145e+00	   1.2714330e-01	   1.1750984e+00	   1.1795074e-01	   1.5429212e-01	   1.1465460e+00	   1.6696653e-01	   1.1731650e+00	   1.4517194e-01	   1.1579683e+00	   1.4615315e-01	   1.4744182e-01	   1.2170459e+00	   1.3408557e-01	   1.2254470e+00	   1.2224663e-01	   1.2555021e+00	   1.0062125e-01	   1.1045117e-01	   1.1977617e+00	   1.2215417e-01	   1.1863915e+00	   1.3362085e-01	   1.2028682e+00	   1.1856848e-01	   1.2211155e+00	   1.1323800e-01	   1.2277922e+00	   9.4291376e-02	   1.2361242e+00	   7.9418034e-02	   1.1899375e+00	   8.3711790e-02	   1.1882322e+00	   9.9327186e-02	   1.1926310e+00	   9.5764727e-02	   1.1640627e+00	   1.1144748e-01	   1.1107713e+00	   1.3163147e-01	   1.0854541e+00	   1.5085193e-01	   1.0847821e+00	   1.5664335e-01	   1.1128173e+00	   1.4364761e-01	   1.0731548e+00	   1.5699869e-01	   1.0364244e+00	   2.0331919e-01	   1.1233369e+00	   1.9269320e-01	   1.1661255e+00	   2.0954654e-01	   1.1554769e+00	   2.3049677e-01	   1.1915737e+00	   2.5995866e-01	   1.1991735e+00	   3.0993893e-01	   1.2455639e+00	
   1.0873918e+00	   2.5320914e-01	   1.0849393e+00	   2.4567735e-01	   9.9196787e-01	   2.6600459e-01	   1.1006208e+00	   2.3821410e-01	   1.2193394e+00	   1.9118839e-01	   1.1975415e+00	   2.3183033e-01	   1.7783452e-01	   1.0823989e+00	   1.9497537e-01	   1.1586537e+00	   1.6240198e-01	   1.0853813e+00	   1.8221949e-01	   1.1554972e+00	   1.5875708e-01	   1.1459863e+00	   1.6826188e-01	   1.0896332e+00	   1.8296539e-01	   1.1844579e+00	   1.5697172e-01	   1.0996843e+00	   1.6717988e-01	   1.1920953e+00	   1.4581483e-01	   1.1247899e+00	   1.6856869e-01	   1.2128240e+00	   1.2448883e-01	   1.1827375e+00	   1.4028370e-01	   1.2041693e+00	   1.3980249e-01	   1.1270443e+00	   1.5815205e-01	   1.1797823e+00	   1.4964056e-01	   1.1249432e+00	   1.7258587e-01	   1.2288574e+00	   1.4274120e-01	   1.1513876e+00	   1.4438792e-01	   1.1711943e+00	   1.2976904e-01	   1.1762927e+00	   1.2014597e-01	   1.5616637e-01	   1.1461975e+00	   1.6919249e-01	   1.1719154e+00	   1.4769071e-01	   1.1587819e+00	   1.4832802e-01	   1.4967548e-01	   1.2172423e+00	   1.3647655e-01	   1.2259888e+00	   1.2501896e-01	   1.2577354e+00	   1.0364412e-01	   1.1317167e-01	   1.1958972e+00	   1.2429910e-01	   1.1840577e+00	   1.3569975e-01	   1.2012438e+00	   1.2072726e-01	   1.2202662e+00	   1.1575154e-01	   1.2274377e+00	   9.6703751e-02	   1.2373469e+00	   8.1951520e-02	   1.1925418e+00	   8.6327807e-02	   1.1876911e+00	   1.0192808e-01	   1.1935672e+00	   9.8256210e-02	   1.1637143e+00	   1.1352299e-01	   1.1118528e+00	   1.3366611e-01	   1.0821801e+00	   1.5242845e-01	   1.0827250e+00	   1.5840789e-01	   1.1122747e+00	   1.4543826e-01	   1.0701886e+00	   1.5869458e-01	   1.0323783e+00	   2.0450959e-01	   1.1229577e+00	   1.9466156e-01	   1.1667645e+00	   2.1124146e-01	   1.1564514e+00	   2.3267822e-01	   1.1931512e+00	   2.6235929e-01	   1.1985071e+00	   3.1240673e-01	   1.2429834e+00	
   1.0883613e+00	   2.5461654e-01	   1.0823407e+00	   2.4735366e-01	   9.9046870e-01	   2.6693149e-01	   1.0997616e+00	   2.3938099e-01	   1.2170047e+00	   1.9297746e-01	   1.1941272e+00	   2.4752043e-01	   1.7954912e-01	   1.0770386e+00	   1.9651460e-01	   1.1576911e+00	   1.6467776e-01	   1.0793082e+00	   1.8421339e-01	   1.1523943e+00	   1.6092097e-01	   1.1420844e+00	   1.7028288e-01	   1.0828780e+00	   1.8481025e-01	   1.1798786e+00	   1.5895057e-01	   1.0948818e+00	   1.6865004e-01	   1.1890124e+00	   1.4807029e-01	   1.1197345e+00	   1.7056744e-01	   1.2117976e+00	   1.2653686e-01	   1.1821604e+00	   1.4260463e-01	   1.2024423e+00	   1.4188931e-01	   1.1219983e+00	   1.6059250e-01	   1.1761286e+00	   1.5146875e-01	   1.1215894e+00	   1.7481590e-01	   1.2275222e+00	   1.4500136e-01	   1.1489222e+00	   1.4640840e-01	   1.1699981e+00	   1.3241448e-01	   1.1757084e+00	   1.2233733e-01	   1.5802327e-01	   1.1440796e+00	   1.7137247e-01	   1.1690075e+00	   1.5019720e-01	   1.1577125e+00	   1.5048231e-01	   1.5190534e-01	   1.2155023e+00	   1.3887257e-01	   1.2245950e+00	   1.2776284e-01	   1.2579346e+00	   1.0667237e-01	   1.1585716e-01	   1.1923446e+00	   1.2642431e-01	   1.1800439e+00	   1.3785495e-01	   1.1978997e+00	   1.2286357e-01	   1.2176833e+00	   1.1824319e-01	   1.2254439e+00	   9.9135611e-02	   1.2368173e+00	   8.4521878e-02	   1.1932199e+00	   8.8958278e-02	   1.1854369e+00	   1.0449165e-01	   1.1927275e+00	   1.0070373e-01	   1.1616502e+00	   1.1557757e-01	   1.1110819e+00	   1.3562955e-01	   1.0773735e+00	   1.5399535e-01	   1.0790936e+00	   1.6017877e-01	   1.1100524e+00	   1.4724119e-01	   1.0658186e+00	   1.6042445e-01	   1.0268464e+00	   2.0574947e-01	   1.1209829e+00	   1.9661905e-01	   1.1656519e+00	   2.1289868e-01	   1.1556751e+00	   2.3484156e-01	   1.1928851e+00	   2.6472860e-01	   1.1962375e+00	   3.1493654e-01	   1.2389127e+00	
   1.0878351e+00	   2.5595270e-01	   1.0784572e+00	   2.4902661e-01	   9.8717349e-01	   2.6788448e-01	   1.0973307e+00	   2.4055737e-01	   1.2132255e+00	   1.9477969e-01	   1.1892058e+00	   2.6419188e-01	   1.8129341e-01	   1.0703452e+00	   1.9806158e-01	   1.1550928e+00	   1.6697072e-01	   1.0718903e+00	   1.8623177e-01	   1.1478596e+00	   1.6308394e-01	   1.1367834e+00	   1.7226672e-01	   1.0747428e+00	   1.8669663e-01	   1.1739366e+00	   1.6094583e-01	   1.0886715e+00	   1.7015304e-01	   1.1844432e+00	   1.5034320e-01	   1.1132006e+00	   1.7253554e-01	   1.2091568e+00	   1.2865113e-01	   1.1798039e+00	   1.4489901e-01	   1.1989470e+00	   1.4396449e-01	   1.1155233e+00	   1.6301604e-01	   1.1710939e+00	   1.5331872e-01	   1.1166962e+00	   1.7701669e-01	   1.2245346e+00	   1.4726166e-01	   1.1449641e+00	   1.4844413e-01	   1.1673016e+00	   1.3506795e-01	   1.1735074e+00	   1.2452907e-01	   1.5987202e-01	   1.1403659e+00	   1.7350782e-01	   1.1646030e+00	   1.5268085e-01	   1.1549397e+00	   1.5261506e-01	   1.5412213e-01	   1.2120238e+00	   1.4128835e-01	   1.2214485e+00	   1.3046901e-01	   1.2563082e+00	   1.0970091e-01	   1.1849969e-01	   1.1872765e+00	   1.2853894e-01	   1.1745268e+00	   1.4008438e-01	   1.1930197e+00	   1.2498033e-01	   1.2135376e+00	   1.2071161e-01	   1.2219661e+00	   1.0158509e-01	   1.2347253e+00	   8.7126424e-02	   1.1921648e+00	   9.1603899e-02	   1.1816457e+00	   1.0701604e-01	   1.1902691e+00	   1.0311019e-01	   1.1580397e+00	   1.1760930e-01	   1.1086246e+00	   1.3751741e-01	   1.0711704e+00	   1.5555957e-01	   1.0740399e+00	   1.6194646e-01	   1.1063073e+00	   1.4905427e-01	   1.0601934e+00	   1.6217844e-01	   1.0199399e+00	   2.0704013e-01	   1.1175671e+00	   1.9855557e-01	   1.1629604e+00	   2.1452464e-01	   1.1533152e+00	   2.3698384e-01	   1.1909512e+00	   2.6705865e-01	   1.1925238e+00	   3.1751427e-01	   1.2334950e+00	
   1.0858918e+00	   2.5723141e-01	   1.0733489e+00	   2.5069251e-01	   9.8213867e-01	   2.6887591e-01	   1.0934196e+00	   2.4175375e-01	   1.2081038e+00	   1.9659390e-01	   1.1829087e+00	   2.8112392e-01	   1.8307335e-01	   1.0624329e+00	   1.9962336e-01	   1.1509925e+00	   1.6927604e-01	   1.0632528e+00	   1.8826551e-01	   1.1420224e+00	   1.6524408e-01	   1.1302207e+00	   1.7422351e-01	   1.0653510e+00	   1.8862131e-01	   1.1667572e+00	   1.6296579e-01	   1.0811903e+00	   1.7169020e-01	   1.1785458e+00	   1.5262546e-01	   1.1053198e+00	   1.7446715e-01	   1.2050669e+00	   1.3082457e-01	   1.1758460e+00	   1.4716106e-01	   1.1938638e+00	   1.4602985e-01	   1.1077651e+00	   1.6540647e-01	   1.1648246e+00	   1.5519244e-01	   1.1104189e+00	   1.7918926e-01	   1.2200614e+00	   1.4951985e-01	   1.1396734e+00	   1.5049978e-01	   1.1632651e+00	   1.3771682e-01	   1.1698368e+00	   1.2672568e-01	   1.6172461e-01	   1.1352137e+00	   1.7560044e-01	   1.1588443e+00	   1.5513261e-01	   1.1506309e+00	   1.5472605e-01	   1.5631692e-01	   1.2069896e+00	   1.4373484e-01	   1.2167180e+00	   1.3313041e-01	   1.2530510e+00	   1.1272333e-01	   1.2109227e-01	   1.1808491e+00	   1.3064858e-01	   1.1676693e+00	   1.4238152e-01	   1.1867722e+00	   1.2708206e-01	   1.2079908e+00	   1.2315556e-01	   1.2171472e+00	   1.0404891e-01	   1.2312457e+00	   8.9760695e-02	   1.1895564e+00	   9.4261381e-02	   1.1764816e+00	   1.0949810e-01	   1.1863415e+00	   1.0547825e-01	   1.1530390e+00	   1.1961855e-01	   1.1046350e+00	   1.3932958e-01	   1.0636902e+00	   1.5712745e-01	   1.0677036e+00	   1.6370203e-01	   1.1011862e+00	   1.5087634e-01	   1.0534413e+00	   1.6394761e-01	   1.0117567e+00	   2.0838063e-01	   1.1128527e+00	   2.0046327e-01	   1.1588501e+00	   2.1612751e-01	   1.1495246e+00	   2.3910339e-01	   1.1875143e+00	   2.6934330e-01	   1.1875104e+00	   3.2012118e-01	   1.2268581e+00	
   1.0825938e+00	   2.5846778e-01	   1.0670555e+00	   2.5234987e-01	   9.7540456e-01	   2.6991471e-01	   1.0881004e+00	   2.4298024e-01	   1.2017282e+00	   1.9841765e-01	   1.1753530e+00	   2.9727360e-01	   1.8489478e-01	   1.0533984e+00	   2.0120708e-01	   1.1455119e+00	   1.7158883e-01	   1.0535039e+00	   1.9030504e-01	   1.1349983e+00	   1.6739892e-01	   1.1225178e+00	   1.7616253e-01	   1.0548048e+00	   1.9057923e-01	   1.1584496e+00	   1.6501945e-01	   1.0725548e+00	   1.7325883e-01	   1.1714672e+00	   1.5490688e-01	   1.0962094e+00	   1.7635748e-01	   1.1996770e+00	   1.3304866e-01	   1.1704499e+00	   1.4938442e-01	   1.1873567e+00	   1.4809129e-01	   1.0988484e+00	   1.6775013e-01	   1.1574512e+00	   1.5708929e-01	   1.1028885e+00	   1.8133292e-01	   1.2142563e+00	   1.5177109e-01	   1.1331982e+00	   1.5257964e-01	   1.1580313e+00	   1.4034877e-01	   1.1648289e+00	   1.2893211e-01	   1.6359396e-01	   1.1287627e+00	   1.7765257e-01	   1.1518551e+00	   1.5754557e-01	   1.1449405e+00	   1.5681495e-01	   1.5848101e-01	   1.2005639e+00	   1.4621716e-01	   1.2105584e+00	   1.3574111e-01	   1.2483407e+00	   1.1573127e-01	   1.2362841e-01	   1.1732030e+00	   1.3275508e-01	   1.1596190e+00	   1.4473597e-01	   1.1793092e+00	   1.2917427e-01	   1.2011929e+00	   1.2557244e-01	   1.2111177e+00	   1.0652215e-01	   1.2265372e+00	   9.2419463e-02	   1.1855600e+00	   9.6923331e-02	   1.1700939e+00	   1.1193303e-01	   1.1810852e+00	   1.0780996e-01	   1.1467896e+00	   1.2160819e-01	   1.0992536e+00	   1.4107108e-01	   1.0550355e+00	   1.5870369e-01	   1.0602099e+00	   1.6543851e-01	   1.0948232e+00	   1.5270675e-01	   1.0456697e+00	   1.6572402e-01	   1.0023798e+00	   2.0976884e-01	   1.1069680e+00	   2.0233692e-01	   1.1534665e+00	   2.1771686e-01	   1.1444410e+00	   2.4119951e-01	   1.1827265e+00	   2.7157761e-01	   1.1813249e+00	   3.2273456e-01	   1.2191134e+00	
   1.0779863e+00	   2.5967670e-01	   1.0595964e+00	   2.5399903e-01	   9.6699658e-01	   2.7100549e-01	   1.0814256e+00	   2.4424508e-01	   1.1941722e+00	   2.0024753e-01	   1.1666389e+00	   3.1129924e-01	   1.8676305e-01	   1.0433186e+00	   2.0281935e-01	   1.1387625e+00	   1.7390346e-01	   1.0427342e+00	   1.9234157e-01	   1.1268880e+00	   1.6954492e-01	   1.1137802e+00	   1.7809157e-01	   1.0431854e+00	   1.9256589e-01	   1.1491062e+00	   1.6711666e-01	   1.0628595e+00	   1.7485400e-01	   1.1633394e+00	   1.5717548e-01	   1.0859719e+00	   1.7820358e-01	   1.1931195e+00	   1.3531376e-01	   1.1637626e+00	   1.5156313e-01	   1.1795728e+00	   1.5015827e-01	   1.0888742e+00	   1.7003749e-01	   1.1490876e+00	   1.5900598e-01	   1.0942108e+00	   1.8344587e-01	   1.2072590e+00	   1.5400845e-01	   1.1256735e+00	   1.5468599e-01	   1.1517242e+00	   1.4295271e-01	   1.1586015e+00	   1.3115371e-01	   1.6549148e-01	   1.1211350e+00	   1.7966660e-01	   1.1437410e+00	   1.5991564e-01	   1.1380087e+00	   1.5888045e-01	   1.6060611e-01	   1.1928909e+00	   1.4873342e-01	   1.2031122e+00	   1.3829554e-01	   1.2423359e+00	   1.1871386e-01	   1.2610204e-01	   1.1644639e+00	   1.3485677e-01	   1.1505059e+00	   1.4713386e-01	   1.1707652e+00	   1.3126218e-01	   1.1932796e+00	   1.2795698e-01	   1.2039953e+00	   1.0899799e-01	   1.2207420e+00	   9.5097738e-02	   1.1803244e+00	   9.9579126e-02	   1.1626141e+00	   1.1431493e-01	   1.1746301e+00	   1.1010664e-01	   1.1394171e+00	   1.2358327e-01	   1.0926062e+00	   1.4275222e-01	   1.0452917e+00	   1.6029109e-01	   1.0516666e+00	   1.6715112e-01	   1.0873382e+00	   1.5454482e-01	   1.0369650e+00	   1.6750087e-01	   9.9187688e-01	   2.1120181e-01	   1.1000251e+00	   2.0417344e-01	   1.1469402e+00	   2.1930339e-01	   1.1381859e+00	   2.4327177e-01	   1.1767245e+00	   2.7375719e-01	   1.1740758e+00	   3.2532942e-01	   1.2103554e+00	
   1.0720968e+00	   2.6087142e-01	   1.0509731e+00	   2.5564147e-01	   9.5692809e-01	   2.7214808e-01	   1.0734275e+00	   2.4555353e-01	   1.1854930e+00	   2.0207966e-01	   1.1568473e+00	   3.2183028e-01	   1.8868304e-01	   1.0322505e+00	   2.0446528e-01	   1.1308480e+00	   1.7621286e-01	   1.0310167e+00	   1.9436796e-01	   1.1177774e+00	   1.7167729e-01	   1.1040993e+00	   1.8001598e-01	   1.0305537e+00	   1.9457890e-01	   1.1388036e+00	   1.6926813e-01	   1.0521772e+00	   1.7647066e-01	   1.1542772e+00	   1.5941789e-01	   1.0746934e+00	   1.8000463e-01	   1.1855091e+00	   1.3760924e-01	   1.1559151e+00	   1.5369281e-01	   1.1706425e+00	   1.5224223e-01	   1.0779194e+00	   1.7226375e-01	   1.1398301e+00	   1.6093664e-01	   1.0844683e+00	   1.8552608e-01	   1.1991960e+00	   1.5622362e-01	   1.1172215e+00	   1.5681788e-01	   1.1444491e+00	   1.4551921e-01	   1.1512575e+00	   1.3339553e-01	   1.6742460e-01	   1.1124346e+00	   1.8164495e-01	   1.1345918e+00	   1.6224172e-01	   1.1299603e+00	   1.6091948e-01	   1.6268490e-01	   1.1840949e+00	   1.5127469e-01	   1.1945103e+00	   1.4078829e-01	   1.2351764e+00	   1.2165712e-01	   1.2850795e-01	   1.1547431e+00	   1.3694878e-01	   1.1404404e+00	   1.4955832e-01	   1.1612574e+00	   1.3334960e-01	   1.1843692e+00	   1.3030036e-01	   1.1958847e+00	   1.1146815e-01	   1.2139857e+00	   9.7791392e-02	   1.1739809e+00	   1.0221647e-01	   1.1541552e+00	   1.1663836e-01	   1.1670935e+00	   1.1236876e-01	   1.1310304e+00	   1.2555019e-01	   1.0848028e+00	   1.4438775e-01	   1.0345273e+00	   1.6189110e-01	   1.0421625e+00	   1.6883661e-01	   1.0788343e+00	   1.5638938e-01	   1.0273931e+00	   1.6927275e-01	   9.8029844e-01	   2.1267568e-01	   1.0921182e+00	   2.0597101e-01	   1.1393859e+00	   2.2089866e-01	   1.1308650e+00	   2.4531913e-01	   1.1696286e+00	   2.7587766e-01	   1.1658506e+00	   3.2788085e-01	   1.2006612e+00	
   1.0649360e+00	   2.6206245e-01	   1.0411703e+00	   2.5727914e-01	   9.4520468e-01	   2.7333766e-01	   1.0641195e+00	   2.4690700e-01	   1.1757303e+00	   2.0391036e-01	   1.1460376e+00	   3.2789473e-01	   1.9065957e-01	   1.0202306e+00	   2.0614706e-01	   1.1218647e+00	   1.7850844e-01	   1.0184058e+00	   1.9637918e-01	   1.1077371e+00	   1.7379008e-01	   1.0935512e+00	   1.8193763e-01	   1.0169517e+00	   1.9661814e-01	   1.1276028e+00	   1.7148484e-01	   1.0405592e+00	   1.7810533e-01	   1.1443757e+00	   1.6161997e-01	   1.0624419e+00	   1.8176154e-01	   1.1769434e+00	   1.3992389e-01	   1.1470218e+00	   1.5577160e-01	   1.1606786e+00	   1.5435441e-01	   1.0660378e+00	   1.7442842e-01	   1.1297570e+00	   1.6287325e-01	   1.0737214e+00	   1.8757215e-01	   1.1901807e+00	   1.5840799e-01	   1.1079497e+00	   1.5897106e-01	   1.1362929e+00	   1.4804048e-01	   1.1428850e+00	   1.3566118e-01	   1.6939484e-01	   1.1027473e+00	   1.8359002e-01	   1.1244821e+00	   1.6452542e-01	   1.1209035e+00	   1.6292725e-01	   1.6471180e-01	   1.1742820e+00	   1.5382619e-01	   1.1848722e+00	   1.4321431e-01	   1.2269832e+00	   1.2454407e-01	   1.3084284e-01	   1.1441384e+00	   1.3902384e-01	   1.1295112e+00	   1.5199007e-01	   1.1508859e+00	   1.3543834e-01	   1.1745606e+00	   1.3259035e-01	   1.1868773e+00	   1.1392417e-01	   1.2063770e+00	   1.0049725e-01	   1.1666426e+00	   1.0482297e-01	   1.1448100e+00	   1.1889990e-01	   1.1585785e+00	   1.1459598e-01	   1.1217219e+00	   1.2751525e-01	   1.0759363e+00	   1.4599517e-01	   1.0227937e+00	   1.6350453e-01	   1.0317667e+00	   1.7049238e-01	   1.0693967e+00	   1.5823824e-01	   1.0169999e+00	   1.7103584e-01	   9.6767812e-01	   2.1418505e-01	   1.0833234e+00	   2.0772825e-01	   1.1309015e+00	   2.2251433e-01	   1.1225686e+00	   2.4733931e-01	   1.1615412e+00	   2.7793431e-01	   1.1567151e+00	   3.3036680e-01	   1.1900898e+00	
   1.0564989e+00	   2.6325689e-01	   1.0301584e+00	   2.5891370e-01	   9.3182944e-01	   2.7456555e-01	   1.0534985e+00	   2.4830263e-01	   1.1649062e+00	   2.0573686e-01	   1.1342477e+00	   3.2915627e-01	   1.9269767e-01	   1.0072774e+00	   2.0786278e-01	   1.1119024e+00	   1.8078091e-01	   1.0049370e+00	   1.9837218e-01	   1.0968234e+00	   1.7587693e-01	   1.0821968e+00	   1.8385442e-01	   1.0024035e+00	   1.9868439e-01	   1.1155502e+00	   1.7377690e-01	   1.0280380e+00	   1.7975690e-01	   1.1337102e+00	   1.6376789e-01	   1.0492662e+00	   1.8347590e-01	   1.1675028e+00	   1.4224659e-01	   1.1371812e+00	   1.5780022e-01	   1.1497762e+00	   1.5650374e-01	   1.0532621e+00	   1.7653412e-01	   1.1189282e+00	   1.6480662e-01	   1.0620109e+00	   1.8958377e-01	   1.1803130e+00	   1.6055395e-01	   1.0979487e+00	   1.6113862e-01	   1.1273252e+00	   1.5050992e-01	   1.1335556e+00	   1.3795181e-01	   1.7139694e-01	   1.0921400e+00	   1.8550423e-01	   1.1134724e+00	   1.6677052e-01	   1.1109292e+00	   1.6489802e-01	   1.6668364e-01	   1.1635418e+00	   1.5636934e-01	   1.1743034e+00	   1.4556969e-01	   1.2178604e+00	   1.2735557e-01	   1.3310656e-01	   1.1327334e+00	   1.4107323e-01	   1.1177840e+00	   1.5440859e-01	   1.1397338e+00	   1.3752836e-01	   1.1639319e+00	   1.3481264e-01	   1.1770507e+00	   1.1635895e-01	   1.1980073e+00	   1.0321274e-01	   1.1584039e+00	   1.0738745e-01	   1.1346521e+00	   1.2109925e-01	   1.1491729e+00	   1.1678725e-01	   1.1115684e+00	   1.2948303e-01	   1.0660813e+00	   1.4759229e-01	   1.0101250e+00	   1.6513181e-01	   1.0205281e+00	   1.7211557e-01	   1.0590926e+00	   1.6008776e-01	   1.0058122e+00	   1.7278803e-01	   9.5403324e-01	   2.1572257e-01	   1.0736982e+00	   2.0944392e-01	   1.1215685e+00	   2.2416085e-01	   1.1133717e+00	   2.4932857e-01	   1.1525461e+00	   2.7992234e-01	   1.1467127e+00	   3.3277026e-01	   1.1786817e+00	
   1.0467677e+00	   2.6445830e-01	   1.0178963e+00	   2.6054608e-01	   9.1680882e-01	   2.7582044e-01	   1.0415479e+00	   2.4973347e-01	   1.1530266e+00	   2.0755805e-01	   1.1214951e+00	   3.2586134e-01	   1.9480242e-01	   9.9339360e-01	   2.0960571e-01	   1.1010424e+00	   1.8302159e-01	   9.9062623e-01	   2.0034538e-01	   1.0850795e+00	   1.7793210e-01	   1.0700797e+00	   1.8576038e-01	   9.8691677e-01	   2.0077740e-01	   1.1026783e+00	   1.7615185e-01	   1.0146295e+00	   1.8142640e-01	   1.1223359e+00	   1.6584941e-01	   1.0351956e+00	   1.8514874e-01	   1.1572508e+00	   1.4456720e-01	   1.1264757e+00	   1.5978123e-01	   1.1380117e+00	   1.5869550e-01	   1.0396057e+00	   1.7858518e-01	   1.1073851e+00	   1.6672784e-01	   1.0493607e+00	   1.9156194e-01	   1.1696787e+00	   1.6265590e-01	   1.0872896e+00	   1.6331210e-01	   1.1175987e+00	   1.5292202e-01	   1.1233239e+00	   1.4026546e-01	   1.7341930e-01	   1.0806607e+00	   1.8739009e-01	   1.1016090e+00	   1.6898224e-01	   1.1001095e+00	   1.6682645e-01	   1.6859977e-01	   1.1519491e+00	   1.5888432e-01	   1.1628945e+00	   1.4785259e-01	   1.2078956e+00	   1.3007254e-01	   1.3530305e-01	   1.1205975e+00	   1.4308808e-01	   1.1053005e+00	   1.5679374e-01	   1.1278683e+00	   1.3961834e-01	   1.1525406e+00	   1.3695305e-01	   1.1664690e+00	   1.1876793e-01	   1.1889511e+00	   1.0593536e-01	   1.1493401e+00	   1.0990065e-01	   1.1237364e+00	   1.2323946e-01	   1.1389495e+00	   1.1894138e-01	   1.1006325e+00	   1.3145503e-01	   1.0552926e+00	   1.4919492e-01	   9.9653831e-01	   1.6677267e-01	   1.0084755e+00	   1.7370260e-01	   1.0479717e+00	   1.6193233e-01	   9.9384006e-01	   1.7452886e-01	   9.3936656e-01	   2.1727879e-01	   1.0632829e+00	   2.1111711e-01	   1.1114507e+00	   2.2584601e-01	   1.1033331e+00	   2.5128204e-01	   1.1427075e+00	   2.8183740e-01	   1.1358648e+00	   3.3508046e-01	   1.1664586e+00	
   1.0357144e+00	   2.6566697e-01	   1.0043344e+00	   2.6217647e-01	   9.0015844e-01	   2.7709009e-01	   1.0282418e+00	   2.5118947e-01	   1.1400827e+00	   2.0937482e-01	   1.1077792e+00	   3.1866465e-01	   1.9697785e-01	   9.7856972e-01	   2.1136462e-01	   1.0893557e+00	   1.8522347e-01	   9.7547133e-01	   2.0229801e-01	   1.0725365e+00	   1.7995145e-01	   1.0572250e+00	   1.8764665e-01	   9.7048428e-01	   2.0289426e-01	   1.0890062e+00	   1.7861283e-01	   1.0003356e+00	   1.8311612e-01	   1.1102900e+00	   1.6785469e-01	   1.0202412e+00	   1.8677998e-01	   1.1462340e+00	   1.4687721e-01	   1.1149727e+00	   1.6171784e-01	   1.1254431e+00	   1.6093113e-01	   1.0250658e+00	   1.8058646e-01	   1.0951526e+00	   1.6862988e-01	   1.0357793e+00	   1.9350888e-01	   1.1583480e+00	   1.6471074e-01	   1.0760214e+00	   1.6548245e-01	   1.1071503e+00	   1.5527260e-01	   1.1122260e+00	   1.4259711e-01	   1.7544595e-01	   1.0683394e+00	   1.8925041e-01	   1.0889236e+00	   1.7116648e-01	   1.0884968e+00	   1.6870862e-01	   1.7046155e-01	   1.1395637e+00	   1.6135245e-01	   1.1507178e+00	   1.5006397e-01	   1.1971614e+00	   1.3267924e-01	   1.3744050e-01	   1.1077853e+00	   1.4506057e-01	   1.0920791e+00	   1.5912758e-01	   1.1153404e+00	   1.4170605e-01	   1.1404245e+00	   1.3900002e-01	   1.1551825e+00	   1.2114940e-01	   1.1792666e+00	   1.0866216e-01	   1.1395075e+00	   1.1235566e-01	   1.1121013e+00	   1.2532628e-01	   1.1279653e+00	   1.2105793e-01	   1.0889638e+00	   1.3342911e-01	   1.0436051e+00	   1.5081506e-01	   9.8203396e-01	   1.6842531e-01	   9.9561907e-01	   1.7524907e-01	   1.0360682e+00	   1.6376434e-01	   9.8107848e-01	   1.7625948e-01	   9.2366915e-01	   2.1884267e-01	   1.0521015e+00	   2.1274780e-01	   1.1005942e+00	   2.2757372e-01	   1.0924951e+00	   2.5319419e-01	   1.1320703e+00	   2.8367649e-01	   1.1241720e+00	   3.3729274e-01	   1.1534244e+00	
   1.0233049e+00	   2.6688056e-01	   9.8941917e-01	   2.6380434e-01	   8.8190896e-01	   2.7836302e-01	   1.0135491e+00	   2.5265915e-01	   1.1260537e+00	   2.1119000e-01	   1.0930850e+00	   3.0843859e-01	   1.9922559e-01	   9.6278729e-01	   2.1312502e-01	   1.0768996e+00	   1.8738181e-01	   9.5945390e-01	   2.0422940e-01	   1.0592143e+00	   1.8193313e-01	   1.0436388e+00	   1.8950303e-01	   9.5308672e-01	   2.0502875e-01	   1.0745401e+00	   1.8115717e-01	   9.8514750e-01	   1.8482857e-01	   1.0975933e+00	   1.6977615e-01	   1.0043983e+00	   1.8836870e-01	   1.1344828e+00	   1.4917021e-01	   1.1027242e+00	   1.6361291e-01	   1.1121114e+00	   1.6320889e-01	   1.0096255e+00	   1.8254286e-01	   1.0822409e+00	   1.7050855e-01	   1.0212629e+00	   1.9542800e-01	   1.1463734e+00	   1.6671773e-01	   1.0641691e+00	   1.6764081e-01	   1.0960012e+00	   1.5755948e-01	   1.1002807e+00	   1.4493930e-01	   1.7745919e-01	   1.0551895e+00	   1.9108841e-01	   1.0754337e+00	   1.7332927e-01	   1.0761229e+00	   1.7054266e-01	   1.7227170e-01	   1.1264303e+00	   1.6375812e-01	   1.1378267e+00	   1.5220785e-01	   1.1857159e+00	   1.3516661e-01	   1.3953077e-01	   1.0943361e+00	   1.4698493e-01	   1.0781160e+00	   1.6139603e-01	   1.1021848e+00	   1.4378844e-01	   1.1276050e+00	   1.4094668e-01	   1.1432286e+00	   1.2350389e-01	   1.1689960e+00	   1.1138945e-01	   1.1289447e+00	   1.1474807e-01	   1.0997701e+00	   1.2736696e-01	   1.1162617e+00	   1.2313823e-01	   1.0765993e+00	   1.3539977e-01	   1.0310353e+00	   1.5245974e-01	   9.6659774e-01	   1.7008573e-01	   9.8195213e-01	   1.7674993e-01	   1.0234021e+00	   1.6557482e-01	   9.6750983e-01	   1.7798232e-01	   9.0692431e-01	   2.2040261e-01	   1.0401637e+00	   2.1433707e-01	   1.0890270e+00	   2.2934357e-01	   1.0808831e+00	   2.5505952e-01	   1.1206598e+00	   2.8543888e-01	   1.1116164e+00	   3.3940728e-01	   1.1395670e+00	
   1.0095026e+00	   2.6809519e-01	   9.7309791e-01	   2.6542858e-01	   8.6211167e-01	   2.7962974e-01	   9.9743732e-01	   2.5413167e-01	   1.1109090e+00	   2.1300780e-01	   1.0773860e+00	   2.9609793e-01	   2.0154381e-01	   9.4602203e-01	   2.1487113e-01	   1.0637154e+00	   1.8949399e-01	   9.4254308e-01	   2.0613861e-01	   1.0451217e+00	   1.8387776e-01	   1.0293088e+00	   1.9131988e-01	   9.3469621e-01	   2.0717200e-01	   1.0592745e+00	   1.8377587e-01	   9.6904723e-01	   1.8656557e-01	   1.0842519e+00	   1.7160713e-01	   9.8764989e-01	   1.8991416e-01	   1.1220122e+00	   1.5144202e-01	   1.0897673e+00	   1.6546863e-01	   1.0980416e+00	   1.6552439e-01	   9.9325692e-01	   1.8445908e-01	   1.0686479e+00	   1.7236242e-01	   1.0057971e+00	   1.9732355e-01	   1.1337895e+00	   1.6867819e-01	   1.0517332e+00	   1.6977906e-01	   1.0841573e+00	   1.5978300e-01	   1.0874896e+00	   1.4728294e-01	   1.7944255e-01	   1.0412105e+00	   1.9290792e-01	   1.0611435e+00	   1.7547605e-01	   1.0629998e+00	   1.7232857e-01	   1.7403384e-01	   1.1125777e+00	   1.6608989e-01	   1.1242542e+00	   1.5429108e-01	   1.1736031e+00	   1.3753450e-01	   1.4158801e-01	   1.0802736e+00	   1.4885807e-01	   1.0633880e+00	   1.6359014e-01	   1.0884205e+00	   1.4586157e-01	   1.1140897e+00	   1.4279192e-01	   1.1306317e+00	   1.2583314e-01	   1.1581670e+00	   1.1411297e-01	   1.1176733e+00	   1.1707612e-01	   1.0867530e+00	   1.2936907e-01	   1.1038645e+00	   1.2518593e-01	   1.0635631e+00	   1.3735911e-01	   1.0175846e+00	   1.5413057e-01	   9.5020421e-01	   1.7174750e-01	   9.6745364e-01	   1.7819999e-01	   1.0099811e+00	   1.6735475e-01	   9.5310590e-01	   1.7970086e-01	   8.8911260e-01	   2.2194769e-01	   1.0274667e+00	   2.1588691e-01	   1.0767594e+00	   2.3115185e-01	   1.0685066e+00	   2.5687306e-01	   1.1084827e+00	   2.8712660e-01	   1.0981654e+00	   3.4142734e-01	   1.1248617e+00	
   9.9427223e-01	   2.6930671e-01	   9.5532462e-01	   2.6704739e-01	   8.4084350e-01	   2.8088319e-01	   9.7987677e-01	   2.5559862e-01	   1.0946120e+00	   2.1483301e-01	   1.0606482e+00	   2.8247260e-01	   2.0392671e-01	   9.2824667e-01	   2.1658820e-01	   1.0498255e+00	   1.9155874e-01	   9.2469995e-01	   2.0802449e-01	   1.0302554e+00	   1.8578817e-01	   1.0142063e+00	   1.9308977e-01	   9.1528100e-01	   2.0931370e-01	   1.0431926e+00	   1.8645434e-01	   9.5200965e-01	   1.8832765e-01	   1.0702587e+00	   1.7333994e-01	   9.6997067e-01	   1.9141699e-01	   1.1088226e+00	   1.5369058e-01	   1.0761237e+00	   1.6728705e-01	   1.0832435e+00	   1.6787059e-01	   9.7592387e-01	   1.8633922e-01	   1.0543607e+00	   1.7419166e-01	   9.8935958e-01	   1.9919990e-01	   1.1206125e+00	   1.7059520e-01	   1.0386915e+00	   1.7189010e-01	   1.0716102e+00	   1.6194629e-01	   1.0738396e+00	   1.4961779e-01	   1.8138309e-01	   1.0263901e+00	   1.9471331e-01	   1.0460454e+00	   1.7761117e-01	   1.0491218e+00	   1.7406764e-01	   1.7575257e-01	   1.0980182e+00	   1.6834063e-01	   1.1100124e+00	   1.5632242e-01	   1.1608539e+00	   1.3979156e-01	   1.4362682e-01	   1.0656048e+00	   1.5068004e-01	   1.0478562e+00	   1.6570665e-01	   1.0740499e+00	   1.4792057e-01	   1.0998751e+00	   1.4454005e-01	   1.1174032e+00	   1.2813926e-01	   1.1467942e+00	   1.1682811e-01	   1.1057010e+00	   1.1934061e-01	   1.0730474e+00	   1.3133968e-01	   1.0907835e+00	   1.2720677e-01	   1.0498648e+00	   1.3929815e-01	   1.0032429e+00	   1.5582394e-01	   9.3282115e-01	   1.7340190e-01	   9.5209166e-01	   1.7959458e-01	   9.9580162e-01	   1.6909654e-01	   9.3782990e-01	   1.8141928e-01	   8.7021768e-01	   2.2346891e-01	   1.0139958e+00	   2.1739970e-01	   1.0637849e+00	   2.3299341e-01	   1.0553605e+00	   2.5863095e-01	   1.0955292e+00	   2.8874434e-01	   1.0837755e+00	   3.4335759e-01	   1.1092745e+00	
   9.7758323e-01	   2.7051213e-01	   9.3606621e-01	   2.6865829e-01	   8.1821109e-01	   2.8211831e-01	   9.6084490e-01	   2.5705513e-01	   1.0771222e+00	   2.1667023e-01	   1.0428325e+00	   2.6824612e-01	   2.0636512e-01	   9.0943345e-01	   2.1826456e-01	   1.0352333e+00	   1.9357518e-01	   9.0588233e-01	   2.0988618e-01	   1.0145988e+00	   1.8766890e-01	   9.9828938e-01	   1.9480874e-01	   8.9481107e-01	   2.1144327e-01	   1.0262691e+00	   1.8917421e-01	   9.3400364e-01	   1.9011366e-01	   1.0555938e+00	   1.7496442e-01	   9.5133095e-01	   1.9288016e-01	   1.0949022e+00	   1.5591594e-01	   1.0618010e+00	   1.6907112e-01	   1.0677122e+00	   1.7023751e-01	   9.5758505e-01	   1.8818635e-01	   1.0393563e+00	   1.7599651e-01	   9.7192275e-01	   2.0106047e-01	   1.1068416e+00	   1.7247367e-01	   1.0250021e+00	   1.7396820e-01	   1.0583383e+00	   1.6405491e-01	   1.0593052e+00	   1.5193291e-01	   1.8327294e-01	   1.0107062e+00	   1.9650935e-01	   1.0301216e+00	   1.7973722e-01	   1.0344683e+00	   1.7576164e-01	   1.7743378e-01	   1.0827486e+00	   1.7050696e-01	   1.0950935e+00	   1.5831125e-01	   1.1474867e+00	   1.4195291e-01	   1.4566039e-01	   1.0503208e+00	   1.5245421e-01	   1.0314706e+00	   1.6774782e-01	   1.0590594e+00	   1.4995962e-01	   1.0849494e+00	   1.4619932e-01	   1.1035426e+00	   1.3042448e-01	   1.1348795e+00	   1.1953028e-01	   1.0930235e+00	   1.2154453e-01	   1.0586376e+00	   1.3328526e-01	   1.0770137e+00	   1.2920748e-01	   1.0354989e+00	   1.4120817e-01	   9.8799200e-01	   1.5753184e-01	   9.1441459e-01	   1.7503827e-01	   9.3582714e-01	   1.8093045e-01	   9.8085077e-01	   1.7079528e-01	   9.2163859e-01	   1.8314204e-01	   8.5023245e-01	   2.2495995e-01	   9.9972546e-01	   2.1887796e-01	   1.0500817e+00	   2.3486413e-01	   1.0414275e+00	   2.6033088e-01	   1.0817750e+00	   2.9029888e-01	   1.0683969e+00	   3.4520314e-01	   1.0927650e+00	
   9.5941322e-01	   2.7171075e-01	   9.1530891e-01	   2.7025818e-01	   7.9435290e-01	   2.8333115e-01	   9.4033188e-01	   2.5849984e-01	   1.0583993e+00	   2.1852313e-01	   1.0238989e+00	   2.5394957e-01	   2.0884765e-01	   8.8955667e-01	   2.1989273e-01	   1.0199237e+00	   1.9554202e-01	   8.8605002e-01	   2.1172383e-01	   9.9812239e-01	   1.8952576e-01	   9.8150690e-01	   1.9647683e-01	   8.7326388e-01	   2.1355009e-01	   1.0084724e+00	   1.9191557e-01	   9.1499394e-01	   1.9192055e-01	   1.0402248e+00	   1.7646796e-01	   9.3170073e-01	   1.9430934e-01	   1.0802285e+00	   1.5812051e-01	   1.0467926e+00	   1.7082569e-01	   1.0514287e+00	   1.7261182e-01	   9.3819743e-01	   1.9000201e-01	   1.0236030e+00	   1.7777596e-01	   9.5345627e-01	   2.0290660e-01	   1.0924605e+00	   1.7432056e-01	   1.0106084e+00	   1.7600935e-01	   1.0443094e+00	   1.6611601e-01	   1.0438509e+00	   1.5421699e-01	   1.8511011e-01	   9.9412884e-01	   1.9830089e-01	   1.0133455e+00	   1.8185479e-01	   1.0190087e+00	   1.7741215e-01	   1.7908513e-01	   1.0667517e+00	   1.7258852e-01	   1.0794704e+00	   1.6026660e-01	   1.1335077e+00	   1.4403639e-01	   1.4769901e-01	   1.0343969e+00	   1.5418732e-01	   1.0141749e+00	   1.6972053e-01	   1.0434200e+00	   1.5197224e-01	   1.0692932e+00	   1.4777996e-01	   1.0890372e+00	   1.3269165e-01	   1.1224132e+00	   1.2221528e-01	   1.0796272e+00	   1.2369227e-01	   1.0434955e+00	   1.3521222e-01	   1.0625366e+00	   1.3119437e-01	   1.0204444e+00	   1.4308197e-01	   9.7180766e-01	   1.5924342e-01	   8.9495361e-01	   1.7664473e-01	   9.1861760e-01	   1.8220672e-01	   9.6510733e-01	   1.7244931e-01	   9.0448491e-01	   1.8487326e-01	   8.2916483e-01	   2.2641757e-01	   9.8462022e-01	   2.2032438e-01	   1.0356158e+00	   2.3676278e-01	   1.0266806e+00	   2.6197256e-01	   1.0671846e+00	   2.9179847e-01	   1.0519776e+00	   3.4696929e-01	   1.0752903e+00	
   9.3975186e-01	   2.7290486e-01	   8.9306468e-01	   2.7184367e-01	   7.6943857e-01	   2.8451793e-01	   9.1834711e-01	   2.5993426e-01	   1.0384067e+00	   2.2039382e-01	   1.0038102e+00	   2.3998335e-01	   2.1136190e-01	   8.6859600e-01	   2.2146957e-01	   1.0038659e+00	   1.9745755e-01	   8.6516992e-01	   2.1353921e-01	   9.8078517e-01	   1.9136547e-01	   9.6380263e-01	   1.9809811e-01	   8.5063007e-01	   2.1562331e-01	   9.8976825e-01	   1.9465882e-01	   8.9494415e-01	   1.9374341e-01	   1.0241079e+00	   1.7783759e-01	   9.1105335e-01	   1.9571246e-01	   1.0647713e+00	   1.6030961e-01	   1.0310789e+00	   1.7255785e-01	   1.0343604e+00	   1.7497711e-01	   9.1772048e-01	   1.9178647e-01	   1.0070616e+00	   1.7952718e-01	   9.3393021e-01	   2.0473689e-01	   1.0774409e+00	   1.7614477e-01	   9.9544349e-01	   1.7801164e-01	   1.0294835e+00	   1.6813731e-01	   1.0274357e+00	   1.5645908e-01	   1.8689866e-01	   9.7662237e-01	   2.0009258e-01	   9.9568433e-01	   1.8396250e-01	   1.0027068e+00	   1.7902023e-01	   1.8071607e-01	   1.0499985e+00	   1.7458731e-01	   1.0630994e+00	   1.6219670e-01	   1.1189114e+00	   1.4605886e-01	   1.4974932e-01	   1.0177944e+00	   1.5588916e-01	   9.9591166e-01	   1.7163493e-01	   1.0270880e+00	   1.5395169e-01	   1.0528796e+00	   1.4929240e-01	   1.0738626e+00	   1.3494472e-01	   1.1093750e+00	   1.2487960e-01	   1.0654901e+00	   1.2578866e-01	   1.0275802e+00	   1.3712771e-01	   1.0473222e+00	   1.3317196e-01	   1.0046659e+00	   1.4491495e-01	   9.5466079e-01	   1.6094708e-01	   8.7441452e-01	   1.7820946e-01	   9.0042069e-01	   1.8342556e-01	   9.4854324e-01	   1.7406026e-01	   8.8632134e-01	   1.8661598e-01	   8.0704250e-01	   2.2784142e-01	   9.6863579e-01	   2.2174208e-01	   1.0203438e+00	   2.3869192e-01	   1.0110855e+00	   2.6355824e-01	   1.0517146e+00	   2.9325234e-01	   1.0344674e+00	   3.4866203e-01	   1.0568085e+00	
   9.1860543e-01	   2.7409954e-01	   8.6937683e-01	   2.7341141e-01	   7.4366534e-01	   2.8567443e-01	   8.9492581e-01	   2.6136169e-01	   1.0171156e+00	   2.2228234e-01	   9.8253638e-01	   2.2664203e-01	   2.1389520e-01	   8.4654050e-01	   2.2299530e-01	   9.8701638e-01	   1.9932000e-01	   8.4322099e-01	   2.1533582e-01	   9.6253804e-01	   1.9319521e-01	   9.4511976e-01	   1.9968006e-01	   8.2691858e-01	   2.1765139e-01	   9.7012234e-01	   1.9738556e-01	   8.7382115e-01	   1.9557569e-01	   1.0071891e+00	   1.7906387e-01	   8.8936895e-01	   1.9709891e-01	   1.0484946e+00	   1.6249223e-01	   1.0146274e+00	   1.7427630e-01	   1.0164637e+00	   1.7731524e-01	   8.9612148e-01	   1.9353965e-01	   9.8968859e-01	   1.8124571e-01	   9.1331849e-01	   2.0654724e-01	   1.0617452e+00	   1.7795609e-01	   9.7943581e-01	   1.7997561e-01	   1.0138165e+00	   1.7012639e-01	   1.0100166e+00	   1.5864956e-01	   1.8864812e-01	   9.5814755e-01	   2.0188841e-01	   9.7710062e-01	   1.8605751e-01	   9.8552612e-01	   1.8058656e-01	   1.8233740e-01	   1.0324515e+00	   1.7650749e-01	   1.0459247e+00	   1.6410916e-01	   1.1036805e+00	   1.4803385e-01	   1.5181431e-01	   1.0004628e+00	   1.5757188e-01	   9.7662563e-01	   1.7350278e-01	   1.0100072e+00	   1.5589148e-01	   1.0356742e+00	   1.5074626e-01	   1.0579834e+00	   1.3718912e-01	   1.0957339e+00	   1.2752072e-01	   1.0505833e+00	   1.2783830e-01	   1.0108408e+00	   1.3904024e-01	   1.0313316e+00	   1.3514213e-01	   9.8811586e-01	   1.4670618e-01	   9.3651801e-01	   1.6263241e-01	   8.5278430e-01	   1.7972273e-01	   8.8119736e-01	   1.8459270e-01	   9.3112485e-01	   1.7563260e-01	   8.6710445e-01	   1.8837111e-01	   7.8391591e-01	   2.2923366e-01	   9.5172201e-01	   2.2313480e-01	   1.0042168e+00	   2.4065741e-01	   9.9460349e-01	   2.6509293e-01	   1.0353171e+00	   2.9467044e-01	   1.0158219e+00	   3.5028868e-01	   1.0372830e+00	
   8.9600219e-01	   2.7530157e-01	   8.4432441e-01	   2.7495868e-01	   7.1725215e-01	   2.8679632e-01	   8.7013427e-01	   2.6278641e-01	   9.9450962e-01	   2.2418622e-01	   9.6005825e-01	   2.1413236e-01	   2.1643488e-01	   8.2339333e-01	   2.2447205e-01	   9.6932279e-01	   2.0112806e-01	   8.2019874e-01	   2.1711846e-01	   9.4332888e-01	   1.9502193e-01	   9.2540514e-01	   2.0123248e-01	   8.0216102e-01	   2.1962222e-01	   9.4950292e-01	   2.0007870e-01	   8.5160073e-01	   1.9740965e-01	   9.8940787e-01	   1.8014561e-01	   8.6663779e-01	   1.9847841e-01	   1.0313594e+00	   1.6468153e-01	   9.9739442e-01	   1.7598982e-01	   9.9768764e-01	   1.7960855e-01	   8.7338149e-01	   1.9526281e-01	   9.7143899e-01	   1.8292644e-01	   8.9160287e-01	   2.0833162e-01	   1.0453301e+00	   1.7976371e-01	   9.6251365e-01	   1.8190444e-01	   9.9726344e-01	   1.7209054e-01	   9.9155371e-01	   1.6078132e-01	   1.9037227e-01	   9.3866486e-01	   2.0369121e-01	   9.5755584e-01	   1.8813631e-01	   9.6743365e-01	   1.8211197e-01	   1.8396051e-01	   1.0140669e+00	   1.7835558e-01	   1.0278841e+00	   1.6601115e-01	   1.0877864e+00	   1.4997104e-01	   1.5389377e-01	   9.8234341e-01	   1.5924870e-01	   9.5626752e-01	   1.7533595e-01	   9.9211138e-01	   1.5778597e-01	   1.0176356e+00	   1.5215015e-01	   1.0413550e+00	   1.3943154e-01	   1.0814492e+00	   1.3013707e-01	   1.0348710e+00	   1.2984548e-01	   9.9321924e-01	   1.4095948e-01	   1.0145190e+00	   1.3710425e-01	   9.7073682e-01	   1.4845913e-01	   9.1734309e-01	   1.6429147e-01	   8.3006369e-01	   1.8117927e-01	   8.6091519e-01	   1.8571732e-01	   9.1281443e-01	   1.7717326e-01	   8.4680040e-01	   1.9013654e-01	   7.5985982e-01	   2.3059842e-01	   9.3382689e-01	   2.2450670e-01	   9.8718315e-01	   2.4266682e-01	   9.7719458e-01	   2.6658443e-01	   1.0179438e+00	   2.9606351e-01	   9.9600764e-01	   3.5185848e-01	   1.0166878e+00	
   8.7199777e-01	   2.7651777e-01	   8.1802439e-01	   2.7648382e-01	   6.9043221e-01	   2.8788039e-01	   8.4407251e-01	   2.6421341e-01	   9.7058840e-01	   2.2610022e-01	   9.3637090e-01	   2.0258562e-01	   2.1896798e-01	   7.9917661e-01	   2.2590240e-01	   9.5072827e-01	   2.0288120e-01	   7.9611907e-01	   2.1889206e-01	   9.2310837e-01	   1.9685165e-01	   9.0461345e-01	   2.0276641e-01	   7.7641456e-01	   2.2152385e-01	   9.2788286e-01	   2.0272210e-01	   8.2827394e-01	   1.9923717e-01	   9.7070005e-01	   1.8109395e-01	   8.4286355e-01	   1.9985981e-01	   1.0133249e+00	   1.6689470e-01	   9.7932728e-01	   1.7770549e-01	   9.7797852e-01	   1.8184239e-01	   8.4950164e-01	   1.9695989e-01	   9.5227036e-01	   1.8456494e-01	   8.6877740e-01	   2.1008329e-01	   1.0281488e+00	   1.8157482e-01	   9.4461002e-01	   1.8380394e-01	   9.7978216e-01	   1.7403676e-01	   9.7201401e-01	   1.6285070e-01	   1.9208714e-01	   9.1813850e-01	   2.0550199e-01	   9.3701423e-01	   1.9019539e-01	   9.4840462e-01	   1.8359815e-01	   1.8559635e-01	   9.9479841e-01	   1.8014106e-01	   1.0089154e+00	   1.6790919e-01	   1.0711903e+00	   1.5187723e-01	   1.5598488e-01	   9.6337256e-01	   1.6093225e-01	   9.3479651e-01	   1.7714514e-01	   9.7332876e-01	   1.5963079e-01	   9.9871766e-01	   1.5351208e-01	   1.0239253e+00	   1.4167910e-01	   1.0664717e+00	   1.3272794e-01	   1.0183112e+00	   1.3181479e-01	   9.7465450e-01	   1.4289530e-01	   9.9683470e-01	   1.3905608e-01	   9.5246534e-01	   1.5018157e-01	   8.9709969e-01	   1.6591924e-01	   8.0627008e-01	   1.8258037e-01	   8.3955216e-01	   1.8681125e-01	   8.9357217e-01	   1.7869121e-01	   8.2539082e-01	   1.9190650e-01	   7.3497331e-01	   2.3194142e-01	   9.1490202e-01	   2.2586187e-01	   9.6919270e-01	   2.4472723e-01	   9.5882093e-01	   2.6804296e-01	   9.9954996e-01	   2.9744286e-01	   9.7500714e-01	   3.5338263e-01	   9.9501342e-01	
   8.4667986e-01	   2.7775325e-01	   7.9063118e-01	   2.7798659e-01	   6.6344544e-01	   2.8892642e-01	   8.1687389e-01	   2.6564853e-01	   9.4537161e-01	   2.2801659e-01	   9.1148592e-01	   1.9206896e-01	   2.2148117e-01	   7.7393578e-01	   2.2728830e-01	   9.3117549e-01	   2.0458010e-01	   7.7102151e-01	   2.2066049e-01	   9.0183575e-01	   1.9868886e-01	   8.8271158e-01	   2.0429292e-01	   7.4976336e-01	   2.2334570e-01	   9.0524190e-01	   2.0530036e-01	   8.0385294e-01	   2.0105081e-01	   9.5100270e-01	   1.8193474e-01	   8.1806653e-01	   2.0125019e-01	   9.9435005e-01	   1.6915141e-01	   9.6036829e-01	   1.7942749e-01	   9.5728466e-01	   1.8400686e-01	   8.2450821e-01	   1.9863785e-01	   9.3214627e-01	   1.8615884e-01	   8.4485300e-01	   2.1179598e-01	   1.0101528e+00	   1.8339390e-01	   9.2566690e-01	   1.8568228e-01	   9.6133638e-01	   1.7597190e-01	   9.5137539e-01	   1.6485812e-01	   1.9380863e-01	   8.9654135e-01	   2.0731929e-01	   9.1544739e-01	   1.9223148e-01	   9.2842597e-01	   1.8504848e-01	   1.8725453e-01	   9.7460055e-01	   1.8187660e-01	   9.8896345e-01	   1.6980862e-01	   1.0538452e+00	   1.5375786e-01	   1.5808251e-01	   9.4348574e-01	   1.6263281e-01	   9.1218324e-01	   1.7893890e-01	   9.5358744e-01	   1.6142327e-01	   9.7887237e-01	   1.5483982e-01	   1.0056390e+00	   1.4393807e-01	   1.0507445e+00	   1.3529318e-01	   1.0008577e+00	   1.3375230e-01	   9.5508712e-01	   1.4485624e-01	   9.7822799e-01	   1.4099492e-01	   9.3323586e-01	   1.5188450e-01	   8.7575545e-01	   1.6751325e-01	   7.8144029e-01	   1.8393491e-01	   8.1710114e-01	   1.8788783e-01	   8.7335925e-01	   1.8019712e-01	   8.0287821e-01	   1.9367145e-01	   7.0937887e-01	   2.3326955e-01	   8.9490870e-01	   2.2720362e-01	   9.5020044e-01	   2.4684293e-01	   9.3945026e-01	   2.6948040e-01	   9.8009924e-01	   2.9881990e-01	   9.5282369e-01	   3.5487370e-01	   9.7227151e-01	
   8.2017117e-01	   2.7901012e-01	   7.6233305e-01	   2.7946801e-01	   6.3653090e-01	   2.8993876e-01	   7.8870234e-01	   2.6709857e-01	   9.1890114e-01	   2.2992594e-01	   8.8543297e-01	   1.8259782e-01	   2.2396080e-01	   7.4774304e-01	   2.2863089e-01	   9.1061096e-01	   2.0622682e-01	   7.4497160e-01	   2.2242560e-01	   8.7948355e-01	   2.0053580e-01	   8.5968271e-01	   2.0582190e-01	   7.2231805e-01	   2.2507995e-01	   8.8156939e-01	   2.0779902e-01	   7.7837577e-01	   2.0284474e-01	   9.3025877e-01	   1.8270808e-01	   7.9228675e-01	   2.0265423e-01	   9.7439520e-01	   1.7147095e-01	   9.4046015e-01	   1.8115681e-01	   9.3556065e-01	   1.8609742e-01	   7.9845574e-01	   2.0030566e-01	   9.1103986e-01	   1.8770915e-01	   8.1986150e-01	   2.1346485e-01	   9.9129294e-01	   1.8522298e-01	   9.0563911e-01	   1.8754911e-01	   9.4189903e-01	   1.7790261e-01	   9.2962970e-01	   1.6680811e-01	   1.9555002e-01	   8.7386003e-01	   2.0913859e-01	   8.9283908e-01	   1.9424132e-01	   9.0749960e-01	   1.8646887e-01	   1.8894229e-01	   9.5343287e-01	   1.8357751e-01	   9.6798558e-01	   1.7171259e-01	   1.0356984e+00	   1.5561817e-01	   1.6017954e-01	   9.2262194e-01	   1.6435715e-01	   8.8841351e-01	   1.8072318e-01	   9.3282163e-01	   1.6316268e-01	   9.5805406e-01	   1.5614124e-01	   9.8644061e-01	   1.4621249e-01	   1.0342054e+00	   1.3783292e-01	   9.8246206e-01	   1.3566650e-01	   9.3446403e-01	   1.4684794e-01	   9.5865061e-01	   1.4291874e-01	   9.1298536e-01	   1.5358025e-01	   8.5328703e-01	   1.6907292e-01	   7.5563313e-01	   1.8525853e-01	   7.9357486e-01	   1.8896055e-01	   8.5214220e-01	   1.8170288e-01	   7.7929015e-01	   1.9541877e-01	   6.8322031e-01	   2.3459032e-01	   8.7382401e-01	   2.2853407e-01	   9.3017081e-01	   2.4901343e-01	   9.1905941e-01	   2.7090914e-01	   9.5956824e-01	   3.0020552e-01	   9.2948587e-01	   3.5634474e-01	   9.4849951e-01	
   7.9262972e-01	   2.8028698e-01	   7.3334601e-01	   2.8092972e-01	   6.0991963e-01	   2.9092688e-01	   7.5974800e-01	   2.6857106e-01	   8.9124212e-01	   2.3181860e-01	   8.5826058e-01	   1.7414904e-01	   2.2639363e-01	   7.2069949e-01	   2.2993089e-01	   8.8898976e-01	   2.0782521e-01	   7.1806240e-01	   2.2418678e-01	   8.5604122e-01	   2.0239196e-01	   8.3553019e-01	   2.0736092e-01	   6.9421364e-01	   2.2672257e-01	   8.5686788e-01	   2.1020522e-01	   7.5190922e-01	   2.0461546e-01	   9.0842228e-01	   1.8346515e-01	   7.6558641e-01	   2.0407415e-01	   9.5342444e-01	   1.7386856e-01	   9.1955218e-01	   1.8289226e-01	   9.1277105e-01	   1.8811442e-01	   7.7142742e-01	   2.0197225e-01	   8.8893717e-01	   1.8922095e-01	   7.9385865e-01	   2.1508700e-01	   9.7152078e-01	   1.8706255e-01	   8.8449765e-01	   1.8941426e-01	   9.2145587e-01	   1.7983536e-01	   9.0678556e-01	   1.6870904e-01	   1.9732016e-01	   8.5009986e-01	   2.1095209e-01	   8.6918982e-01	   1.9622128e-01	   8.8564507e-01	   1.8786818e-01	   1.9066358e-01	   9.3126427e-01	   1.8525996e-01	   9.4595588e-01	   1.7362152e-01	   1.0166952e+00	   1.5746377e-01	   1.6226721e-01	   9.0072894e-01	   1.6610808e-01	   8.6349278e-01	   1.8250127e-01	   9.1097842e-01	   1.6485009e-01	   9.3622393e-01	   1.5742437e-01	   9.6627870e-01	   1.4850304e-01	   1.0167887e+00	   1.4034721e-01	   9.6307683e-01	   1.3756875e-01	   9.1274375e-01	   1.4887223e-01	   9.3806063e-01	   1.4482688e-01	   8.9165827e-01	   1.5528012e-01	   8.2968561e-01	   1.7059898e-01	   7.2893140e-01	   1.8657123e-01	   7.6901079e-01	   1.9004185e-01	   8.2989814e-01	   1.8322082e-01	   7.5468161e-01	   1.9713433e-01	   6.5665955e-01	   2.3591102e-01	   8.5164607e-01	   2.2985413e-01	   9.0908242e-01	   2.5123229e-01	   8.9763777e-01	   2.7234058e-01	   9.3795076e-01	   3.0160932e-01	   9.0505087e-01	   3.5780829e-01	   9.2376244e-01	
