	
0.184	-0.229675293		
0.188	-0.229003906		
0.192	-0.22833252		
0.196	-0.227844238		
0.2	-0.227355957		
0.204	-0.226806641		
0.208	-0.226257324		
0.212	-0.225402832		
0.216	-0.224304199		
0.22	-0.222961426		
0.224	-0.221496582		
0.228	-0.220275879		
0.232	-0.219299316		
0.236	-0.218688965		
0.24	-0.218322754		
0.244	-0.217956543		
0.248	-0.217346191		
0.252	-0.216186523		
0.256	-0.21472168		
0.26	-0.213256836		
0.264	-0.211669922		
0.268	-0.210266113		
0.272	-0.208984375		
0.276	-0.207702637		
0.28	-0.206542969		
0.284	-0.205627441		
0.288	-0.205078125		
0.292	-0.204772949		
0.296	-0.204528809		
0.3	-0.204101563		
0.304	-0.20324707		
0.308	-0.202209473		
0.312	-0.201171875		
0.316	-0.200195313		
0.32	-0.19921875		
0.324	-0.198059082		
0.328	-0.196716309		
0.332	-0.194519043		
0.336	-0.190979004		
0.34	-0.18572998		
0.344	-0.178100586		
0.348	-0.167114258		
0.352	-0.151672363		
0.356	-0.130981445		
0.36	-0.104187012		
0.364	-0.071350098		
0.368	-0.033569336		
0.372	0.00793457		
0.376	0.051635742		
0.38	0.095947266		
0.384	0.140014648		
0.388	0.182861328		
0.392	0.224182129		
0.396	0.263366699		
0.4	0.300048828		
0.404	0.334228516		
0.408	0.365539551		
0.412	0.394042969		
0.416	0.419616699		
0.42	0.442382813		
0.424	0.462524414		
0.428	0.480102539		
0.432	0.495361328		
0.436	0.508239746		
0.44	0.518920898		
0.444	0.527648926		
0.448	0.534484863		
0.452	0.539672852		
0.456	0.543395996		
0.46	0.545410156		
0.464	0.545898438		
0.468	0.54498291		
0.472	0.542724609		
0.476	0.539306641		
0.48	0.534851074		
0.484	0.52923584		
0.488	0.522521973		
0.492	0.514892578		
0.496	0.505981445		
0.5	0.495727539		
0.504	0.484069824		
0.508	0.47088623		
0.512	0.456237793		
0.516	0.440124512		
0.52	0.422851563		
0.524	0.404296875		
0.528	0.384277344		
0.532	0.362609863		
0.536	0.339111328		
0.54	0.313537598		
0.544	0.285827637		
0.548	0.256347656		
0.552	0.225402832		
0.556	0.193481445		
0.56	0.161193848		
0.564	0.12902832		
0.568	0.097290039		
0.572	0.06628418		
0.576	0.036132813		
0.58	0.007080078		
0.584	-0.020446777		
0.588	-0.046508789		
0.592	-0.070983887		
0.596	-0.093933105		
0.6	-0.11541748		
0.604	-0.135559082		
0.608	-0.15435791		
0.612	-0.171691895		
0.616	-0.187438965		
0.62	-0.201660156		
0.624	-0.214416504		
0.628	-0.225891113		
0.632	-0.23626709		
0.636	-0.245849609		
0.64	-0.254699707		
0.644	-0.262817383		
0.648	-0.270385742		
0.652	-0.27722168		
0.656	-0.283508301		
0.66	-0.289428711		
0.664	-0.294799805		
0.668	-0.299804688		
0.672	-0.304443359		
0.676	-0.30871582		
0.68	-0.3125		
0.684	-0.315979004		
0.688	-0.319396973		
0.692	-0.322570801		
0.696	-0.325561523		
0.7	-0.328308105		
0.704	-0.330505371		
0.708	-0.332092285		
0.712	-0.333007813		
0.716	-0.333679199		
0.72	-0.334228516		
0.724	-0.334655762		
0.728	-0.335205078		
0.732	-0.335510254		
0.736	-0.33581543		
0.74	-0.33605957		
0.744	-0.336242676		
0.748	-0.336364746		
0.752	-0.336364746		
0.756	-0.336425781		
0.76	-0.336242676		
0.764	-0.335876465		
0.768	-0.335388184		
0.772	-0.334655762		
0.776	-0.33380127		
0.78	-0.332946777		
0.784	-0.33203125		
0.788	-0.331176758		
0.792	-0.330078125		
0.796	-0.328918457		
0.8	-0.327636719		
0.804	-0.32623291		
0.808	-0.324951172		
0.812	-0.323791504		
0.816	-0.322753906		
0.82	-0.321777344		
0.824	-0.320922852		
0.828	-0.320617676		
0.832	-0.320556641		
0.836	-0.320739746		
0.84	-0.321228027		
0.844	-0.321472168		
0.848	-0.321289063		
0.852	-0.3203125		
0.856	-0.318847656		
0.86	-0.317077637		
0.864	-0.314880371		
0.868	-0.3125		
0.872	-0.309875488		
0.876	-0.307067871		
0.88	-0.304199219		
0.884	-0.301513672		
0.888	-0.299377441		
0.892	-0.297790527		
0.896	-0.296630859		
0.9	-0.295715332		
0.904	-0.29486084		
0.908	-0.294006348		
0.912	-0.29296875		
0.916	-0.292053223		
0.92	-0.291137695		
0.924	-0.290039063		
0.928	-0.288818359		
0.932	-0.287475586		
0.936	-0.286071777		
0.94	-0.284545898		
0.944	-0.282897949		
0.948	-0.28125		
0.952	-0.279663086		
0.956	-0.278137207		
0.96	-0.276977539		
0.964	-0.276000977		
0.968	-0.275268555		
0.972	-0.274536133		
0.976	-0.273620605		
0.98	-0.272521973		
0.984	-0.270996094		
0.988	-0.269287109		
0.992	-0.26739502		
0.996	-0.26550293		
1	-0.26385498		
1.004	-0.262329102		
1.008	-0.261108398		
1.012	-0.260070801		
1.016	-0.259155273		
1.02	-0.258117676		
1.024	-0.256835938		
1.028	-0.255615234		
1.032	-0.254211426		
1.036	-0.252746582		
1.04	-0.251281738		
1.044	-0.249694824		
1.048	-0.247924805		
1.052	-0.24597168		
1.056	-0.243896484		
1.06	-0.241760254		
1.064	-0.239501953		
1.068	-0.237304688		
1.072	-0.235290527		
1.076	-0.233459473		
1.08	-0.231872559		
1.084	-0.23059082		
1.088	-0.229553223		
1.092	-0.228515625		
1.096	-0.227416992		
1.1	-0.226196289		
1.104	-0.22479248		
1.108	-0.223754883		
1.112	-0.222717285		
1.116	-0.221984863		
1.12	-0.221496582		
1.124	-0.220825195		
1.128	-0.220092773		
1.132	-0.219055176		
1.136	-0.217895508		
1.14	-0.216552734		
1.144	-0.215087891		
1.148	-0.213745117		
1.152	-0.212524414		
1.156	-0.211425781		
1.16	-0.210571289		
1.164	-0.209777832		
1.168	-0.20892334		
1.172	-0.207946777		
1.176	-0.20690918		
1.18	-0.205932617		
1.184	-0.204956055		
1.188	-0.204223633		
1.192	-0.203613281		
1.196	-0.203125		
1.2	-0.202636719		
1.204	-0.202026367		
1.208	-0.20135498		
1.212	-0.200439453		
1.216	-0.199584961		
1.22	-0.198730469		
1.224	-0.197692871		
1.228	-0.196533203		
1.232	-0.194885254		
1.236	-0.192565918		
1.24	-0.188659668		
1.244	-0.182128906		
1.248	-0.171569824		
1.252	-0.154846191		
1.256	-0.130493164		
1.26	-0.098205566		
1.264	-0.058532715		
1.268	-0.013427734		
1.272	0.034729004		
1.276	0.083557129		
1.28	0.131652832		
1.284	0.178100586		
1.288	0.222229004		
1.292	0.263977051		
1.296	0.303039551		
1.3	0.339172363		
1.304	0.372070313		
1.308	0.401611328		
1.312	0.428222656		
1.316	0.451843262		
1.32	0.47277832		
1.324	0.490966797		
1.328	0.506286621		
1.332	0.518798828		
1.336	0.528686523		
1.34	0.536193848		
1.344	0.541809082		
1.348	0.545898438		
1.352	0.548583984		
1.356	0.549926758		
1.36	0.549743652		
1.364	0.548156738		
1.368	0.545349121		
1.372	0.541442871		
1.376	0.536560059		
1.38	0.530578613		
1.384	0.523498535		
1.388	0.515197754		
1.392	0.505981445		
1.396	0.495605469		
1.4	0.484130859		
1.404	0.471679688		
1.408	0.458007813		
1.412	0.442993164		
1.416	0.426574707		
1.42	0.408691406		
1.424	0.389099121		
1.428	0.367675781		
1.432	0.344299316		
1.436	0.318725586		
1.44	0.291015625		
1.444	0.26159668		
1.448	0.230651855		
1.452	0.198791504		
1.456	0.166503906		
1.46	0.134338379		
1.464	0.102600098		
1.468	0.071350098		
1.472	0.040771484		
1.476	0.011169434		
1.48	-0.017089844		
1.484	-0.043823242		
1.488	-0.068908691		
1.492	-0.092224121		
1.496	-0.113891602		
1.5	-0.134338379		
1.504	-0.153442383		
1.508	-0.171325684		
1.512	-0.187805176		
1.516	-0.202880859		
1.52	-0.216369629		
1.524	-0.228393555		
1.528	-0.239440918		
1.532	-0.249572754		
1.536	-0.259033203		
1.54	-0.267883301		
1.544	-0.276062012		
1.548	-0.28338623		
1.552	-0.289978027		
1.556	-0.296020508		
1.56	-0.301452637		
1.564	-0.306518555		
1.568	-0.311645508		
1.572	-0.316345215		
1.576	-0.320678711		
1.58	-0.324584961		
1.584	-0.328186035		
1.588	-0.331298828		
1.592	-0.33380127		
1.596	-0.3359375		
1.6	-0.337768555		
1.604	-0.339172363		
1.608	-0.340393066		
1.612	-0.341491699		
1.616	-0.342651367		
1.62	-0.343811035		
1.624	-0.344848633		
1.628	-0.34576416		
1.632	-0.346252441		
1.636	-0.346496582		
1.64	-0.346557617		
1.644	-0.346374512		
1.648	-0.346313477		
1.652	-0.346374512		
1.656	-0.346618652		
1.66	-0.346801758		
1.664	-0.346679688		
1.668	-0.346374512		
1.672	-0.34588623		
1.676	-0.345275879		
1.68	-0.344543457		
1.684	-0.343688965		
1.688	-0.342956543		
1.692	-0.34197998		
1.696	-0.340820313		
1.7	-0.339660645		
1.704	-0.338256836		
1.708	-0.336608887		
1.712	-0.334777832		
1.716	-0.332763672		
1.72	-0.330810547		
1.724	-0.328918457		
1.728	-0.327087402		
1.732	-0.325378418		
1.736	-0.323852539		
1.74	-0.322265625		
1.744	-0.320739746		
1.748	-0.319519043		
1.752	-0.31854248		
1.756	-0.317687988		
1.76	-0.316833496		
1.764	-0.315734863		
1.768	-0.31427002		
1.772	-0.312744141		
1.776	-0.311279297		
1.78	-0.309936523		
1.784	-0.30859375		
1.788	-0.307128906		
1.792	-0.305236816		
1.796	-0.303161621		
1.8	-0.300964355		
1.804	-0.29901123		
1.808	-0.297180176		
1.812	-0.295288086		
1.816	-0.293579102		
1.82	-0.292053223		
1.824	-0.290405273		
1.828	-0.28894043		
1.832	-0.287475586		
1.836	-0.285888672		
1.84	-0.284179688		
1.844	-0.282409668		
1.848	-0.280700684		
1.852	-0.279052734		
1.856	-0.277404785		
1.86	-0.275695801		
1.864	-0.273925781		
1.868	-0.272216797		
1.872	-0.270385742		
1.876	-0.268615723		
1.88	-0.266906738		
1.884	-0.265319824		
1.888	-0.263977051		
1.892	-0.262695313		
1.896	-0.261474609		
1.9	-0.260253906		
1.904	-0.258789063		
1.908	-0.257141113		
1.912	-0.255310059		
1.916	-0.253479004		
1.92	-0.251953125		
1.924	-0.250671387		
1.928	-0.249511719		
1.932	-0.24822998		
1.936	-0.246887207		
1.94	-0.245666504		
1.944	-0.244628906		
1.948	-0.24395752		
1.952	-0.243408203		
1.956	-0.242797852		
1.96	-0.24206543		
1.964	-0.240905762		
1.968	-0.239501953		
1.972	-0.23815918		
1.976	-0.236938477		
1.98	-0.235778809		
1.984	-0.234741211		
1.988	-0.234008789		
1.992	-0.233337402		
1.996	-0.232666016		
2	-0.232055664		
2.004	-0.231323242		
2.008	-0.230407715		
2.012	-0.229370117		
2.016	-0.228271484		
2.02	-0.226989746		
2.024	-0.225830078		
2.028	-0.224975586		
2.032	-0.224121094		
2.036	-0.223327637		
2.04	-0.22253418		
2.044	-0.221313477		
2.048	-0.219665527		
2.052	-0.217895508		
2.056	-0.216308594		
2.06	-0.21496582		
2.064	-0.213867188		
2.068	-0.21295166		
2.072	-0.211853027		
2.076	-0.210632324		
2.08	-0.209350586		
2.084	-0.208007813		
2.088	-0.206970215		
2.092	-0.206054688		
2.096	-0.205200195		
2.1	-0.203918457		
2.104	-0.201965332		
2.108	-0.198852539		
2.112	-0.193786621		
2.116	-0.185913086		
2.12	-0.17388916		
2.124	-0.15625		
2.128	-0.132080078		
2.132	-0.100769043		
2.136	-0.063171387		
2.14	-0.021057129		
2.144	0.023498535		
2.148	0.068481445		
2.152	0.112548828		
2.156	0.15447998		
2.16	0.194091797		
2.164	0.231201172		
2.168	0.265563965		
2.172	0.297119141		
2.176	0.325561523		
2.18	0.351074219		
2.184	0.373535156		
2.188	0.392883301		
2.192	0.409484863		
2.196	0.423339844		
2.2	0.434753418		
2.204	0.443969727		
2.208	0.45111084		
2.212	0.456420898		
2.216	0.459838867		
2.22	0.461547852		
2.224	0.461425781		
2.228	0.459472656		
2.232	0.456054688		
2.236	0.45123291		
2.24	0.445129395		
2.244	0.437805176		
2.248	0.428955078		
2.252	0.418579102		
2.256	0.406494141		
2.26	0.392700195		
2.264	0.377258301		
2.268	0.359985352		
2.272	0.341064453		
2.276	0.320129395		
2.28	0.29699707		
2.284	0.271789551		
2.288	0.244812012		
2.292	0.21661377		
2.296	0.187805176		
2.3	0.158691406		
2.304	0.129455566		
2.308	0.100341797		
2.312	0.071777344		
2.316	0.044006348		
2.32	0.01739502		
2.324	-0.007629395		
2.328	-0.031311035		
2.332	-0.053527832		
2.336	-0.074523926		
2.34	-0.094177246		
2.344	-0.112365723		
2.348	-0.129333496		
2.352	-0.144897461		
2.356	-0.159057617		
2.36	-0.171875		
2.364	-0.183410645		
2.368	-0.193847656		
2.372	-0.203430176		
2.376	-0.212219238		
2.38	-0.220581055		
2.384	-0.228271484		
2.388	-0.235168457		
2.392	-0.241333008		
2.396	-0.247009277		
2.4	-0.252258301		
2.404	-0.257080078		
2.408	-0.261657715		
2.412	-0.266296387		
2.416	-0.271240234		
2.42	-0.276428223		
2.424	-0.281555176		
2.428	-0.286254883		
2.432	-0.289978027		
2.436	-0.292663574		
2.44	-0.294555664		
2.444	-0.295898438		
2.448	-0.297424316		
2.452	-0.298950195		
2.456	-0.300354004		
2.46	-0.301574707		
2.464	-0.302490234		
2.468	-0.303283691		
2.472	-0.304138184		
2.476	-0.305175781		
2.48	-0.306274414		
2.484	-0.307250977		
2.488	-0.307983398		
2.492	-0.308166504		
2.496	-0.308105469		
2.5	-0.307861328		
2.504	-0.307495117		
2.508	-0.307250977		
2.512	-0.306945801		
2.516	-0.30657959		
2.52	-0.306152344		
2.524	-0.305725098		
2.528	-0.305358887		
2.532	-0.3046875		
2.536	-0.304016113		
2.54	-0.303222656		
2.544	-0.302490234		
2.548	-0.301879883		
2.552	-0.301452637		
2.556	-0.301330566		
2.56	-0.301086426		
2.564	-0.300720215		
2.568	-0.300109863		
2.572	-0.29888916		
2.576	-0.297363281		
2.58	-0.295410156		
2.584	-0.293334961		
2.588	-0.291503906		
2.592	-0.289855957		
2.596	-0.288330078		
2.6	-0.28692627		
2.604	-0.285522461		
2.608	-0.284057617		
2.612	-0.282592773		
2.616	-0.28125		
2.62	-0.280029297		
2.624	-0.278747559		
2.628	-0.27746582		
2.632	-0.276184082		
2.636	-0.274902344		
2.64	-0.273681641		
2.644	-0.272644043		
2.648	-0.271972656		
2.652	-0.271484375		
2.656	-0.270935059		
2.66	-0.270263672		
2.664	-0.26953125		
2.668	-0.268798828		
2.672	-0.267822266		
2.676	-0.266662598		
2.68	-0.265258789		
2.684	-0.263671875		
2.688	-0.261962891		
2.692	-0.260131836		
2.696	-0.258422852		
2.7	-0.257019043		
2.704	-0.255859375		
2.708	-0.254821777		
2.712	-0.253845215		
2.716	-0.252807617		
2.72	-0.251525879		
2.724	-0.249938965		
2.728	-0.248168945		
2.732	-0.246520996		
2.736	-0.245239258		
2.74	-0.244384766		
2.744	-0.24395752		
2.748	-0.243835449		
2.752	-0.243469238		
2.756	-0.242919922		
2.76	-0.241943359		
2.764	-0.240539551		
2.768	-0.239074707		
2.772	-0.237548828		
2.776	-0.236022949		
2.78	-0.234619141		
2.784	-0.233215332		
2.788	-0.231872559		
2.792	-0.230407715		
2.796	-0.228820801		
2.8	-0.227233887		
2.804	-0.225769043		
2.808	-0.224487305		
2.812	-0.223449707		
2.816	-0.222717285		
2.82	-0.222229004		
2.824	-0.221801758		
2.828	-0.221374512		
2.832	-0.220825195		
2.836	-0.219970703		
2.84	-0.218811035		
2.844	-0.217407227		
2.848	-0.215942383		
2.852	-0.214477539		
2.856	-0.213134766		
2.86	-0.212097168		
2.864	-0.211181641		
2.868	-0.210327148		
2.872	-0.209472656		
2.876	-0.208618164		
2.88	-0.207824707		
2.884	-0.207092285		
2.888	-0.206481934		
2.892	-0.205749512		
2.896	-0.205078125		
2.9	-0.204467773		
2.904	-0.203674316		
2.908	-0.202941895		
2.912	-0.202270508		
2.916	-0.201538086		
2.92	-0.200683594		
2.924	-0.199584961		
2.928	-0.198242188		
2.932	-0.196655273		
2.936	-0.195068359		
2.94	-0.193725586		
2.944	-0.192749023		
2.948	-0.192016602		
2.952	-0.191162109		
2.956	-0.190063477		
2.96	-0.188659668		
2.964	-0.187072754		
2.968	-0.185668945		
2.972	-0.184387207		
2.976	-0.183532715		
2.98	-0.182861328		
2.984	-0.182312012		
2.988	-0.18182373		
2.992	-0.181274414		
2.996	-0.180480957		
3	-0.178955078		
3.004	-0.175964355		
3.008	-0.171020508		
3.012	-0.163452148		
3.016	-0.152404785		
3.02	-0.136657715		
3.024	-0.114990234		
3.028	-0.086791992		
3.032	-0.052001953		
3.036	-0.011657715		
3.04	0.032409668		
3.044	0.078369141		
3.048	0.124633789		
3.052	0.170410156		
3.056	0.21496582		
3.06	0.258117676		
3.064	0.299621582		
3.068	0.338867188		
3.072	0.375305176		
3.076	0.408508301		
3.08	0.438354492		
3.084	0.464660645		
3.088	0.487609863		
3.092	0.507629395		
3.096	0.524902344		
3.1	0.539428711		
3.104	0.551452637		
3.108	0.560852051		
3.112	0.567871094		
3.116	0.572875977		
3.12	0.57611084		
3.124	0.577819824		
3.128	0.578063965		
3.132	0.576843262		
3.136	0.57409668		
3.14	0.570068359		
3.144	0.56463623		
3.148	0.558044434		
3.152	0.550476074		
3.156	0.541992188		
3.16	0.532287598		
3.164	0.521240234		
3.168	0.508666992		
3.172	0.494628906		
3.176	0.479309082		
3.18	0.46282959		
3.184	0.445251465		
3.188	0.426269531		
3.192	0.405456543		
3.196	0.382385254		
3.2	0.356933594		
3.204	0.329650879		
3.208	0.30078125		
3.212	0.270812988		
3.216	0.239990234		
3.22	0.208435059		
3.224	0.176330566		
3.228	0.143859863		
3.232	0.11151123		
3.236	0.079711914		
3.24	0.04888916		
3.244	0.019592285		
3.248	-0.008117676		
3.252	-0.034301758		
3.256	-0.059020996		
3.26	-0.082336426		
3.264	-0.104309082		
3.268	-0.125244141		
3.272	-0.144714355		
3.276	-0.162658691		
3.28	-0.179016113		
3.284	-0.193725586		
3.288	-0.20703125		
3.292	-0.218688965		
3.296	-0.229125977		
3.3	-0.238708496		
3.304	-0.247558594		
3.308	-0.25579834		
3.312	-0.26348877		
3.316	-0.270629883		
3.32	-0.277099609		
3.324	-0.282958984		
3.328	-0.288391113		
3.332	-0.293151855		
3.336	-0.297546387		
3.34	-0.301452637		
3.344	-0.304626465		
3.348	-0.307373047		
3.352	-0.309997559		
3.356	-0.31262207		
3.36	-0.315307617		
3.364	-0.317810059		
3.368	-0.320129395		
3.372	-0.321838379		
3.376	-0.322998047		
3.38	-0.323730469		
3.384	-0.32434082		
3.388	-0.324829102		
3.392	-0.324890137		
3.396	-0.324768066		
3.4	-0.32434082		
3.404	-0.323547363		
3.408	-0.322692871		
3.412	-0.321960449		
3.416	-0.321411133		
3.42	-0.320983887		
3.424	-0.320495605		
3.428	-0.319946289		
3.432	-0.319213867		
3.436	-0.31842041		
3.44	-0.317565918		
3.444	-0.316650391		
3.448	-0.316040039		
3.452	-0.315551758		
3.456	-0.315124512		
3.46	-0.314697266		
3.464	-0.313964844		
3.468	-0.313171387		
3.472	-0.312194824		
3.476	-0.311340332		
3.48	-0.31060791		
3.484	-0.310058594		
3.488	-0.309692383		
3.492	-0.309143066		
3.496	-0.308654785		
3.5	-0.308166504		
3.504	-0.307495117		
3.508	-0.30670166		
3.512	-0.305725098		
3.516	-0.304504395		
3.52	-0.303039551		
3.524	-0.301452637		
3.528	-0.299865723		
3.532	-0.298217773		
3.536	-0.296630859		
3.54	-0.29510498		
3.544	-0.293823242		
3.548	-0.29284668		
3.552	-0.291931152		
3.556	-0.291137695		
3.56	-0.290344238		
3.564	-0.289489746		
3.568	-0.288513184		
3.572	-0.287353516		
3.576	-0.286193848		
3.58	-0.284790039		
3.584	-0.28302002		
3.588	-0.28112793		
3.592	-0.278991699		
3.596	-0.276916504		
3.6	-0.275085449		
3.604	-0.273620605		
3.608	-0.272338867		
3.612	-0.271179199		
3.616	-0.269958496		
3.62	-0.268554688		
3.624	-0.266906738		
3.628	-0.265380859		
3.632	-0.263916016		
3.636	-0.262634277		
3.64	-0.261535645		
3.644	-0.260437012		
3.648	-0.259338379		
3.652	-0.2578125		
3.656	-0.255859375		
3.66	-0.253723145		
3.664	-0.251403809		
3.668	-0.249206543		
3.672	-0.247314453		
3.676	-0.245666504		
3.68	-0.24432373		
3.684	-0.242919922		
3.688	-0.241394043		
3.692	-0.239562988		
3.696	-0.237792969		
3.7	-0.236206055		
3.704	-0.234680176		
3.708	-0.233520508		
3.712	-0.232727051		
3.716	-0.23223877		
3.72	-0.231750488		
3.724	-0.231140137		
3.728	-0.23059082		
3.732	-0.229858398		
3.736	-0.228881836		
3.74	-0.227844238		
3.744	-0.226806641		
3.748	-0.225646973		
3.752	-0.22442627		
3.756	-0.223327637		
3.76	-0.222167969		
3.764	-0.22088623		
3.768	-0.219604492		
3.772	-0.218261719		
3.776	-0.217041016		
3.78	-0.215881348		
3.784	-0.21484375		
3.788	-0.213928223		
3.792	-0.21270752		
3.796	-0.211242676		
3.8	-0.209411621		
3.804	-0.207336426		
3.808	-0.205200195		
3.812	-0.203186035		
3.816	-0.20135498		
3.82	-0.199890137		
3.824	-0.198730469		
3.828	-0.197937012		
3.832	-0.19732666		
3.836	-0.196838379		
3.84	-0.196228027		
3.844	-0.19519043		
3.848	-0.193969727		
3.852	-0.192443848		
3.856	-0.190917969		
3.86	-0.189453125		
3.864	-0.188232422		
3.868	-0.18737793		
3.872	-0.186462402		
3.876	-0.18560791		
3.88	-0.184692383		
3.884	-0.18359375		
3.888	-0.182373047		
3.892	-0.181091309		
3.896	-0.179931641		
3.9	-0.179016113		
3.904	-0.178161621		
3.908	-0.177429199		
3.912	-0.176635742		
3.916	-0.17578125		
3.92	-0.174865723		
3.924	-0.17401123		
3.928	-0.173339844		
3.932	-0.172851563		
3.936	-0.172668457		
3.94	-0.172485352		
3.944	-0.172180176		
3.948	-0.171447754		
3.952	-0.16973877		
3.956	-0.166503906		
3.96	-0.160949707		
3.964	-0.151550293		
3.968	-0.136535645		
3.972	-0.114013672		
3.976	-0.082946777		
3.98	-0.043457031		
3.984	0.002990723		
3.988	0.05456543		
3.992	0.108947754		
3.996	0.164123535		
4	0.218811035		
4.004	0.272155762		
4.008	0.323364258		
4.012	0.371704102		
4.016	0.416564941		
4.02	0.457641602		
4.024	0.495117188		
4.028	0.528930664		
4.032	0.559509277		
4.036	0.586730957		
4.04	0.610839844		
4.044	0.631774902		
4.048	0.649291992		
4.052	0.66394043		
4.056	0.67590332		
4.06	0.685546875		
4.064	0.693237305		
4.068	0.69921875		
4.072	0.703674316		
4.076	0.706481934		
4.08	0.707519531		
4.084	0.70690918		
4.088	0.704406738		
4.092	0.700256348		
4.096	0.694580078		
4.1	0.687683105		
4.104	0.679748535		
4.108	0.670898438		
4.112	0.661315918		
4.116	0.650817871		
4.12	0.639343262		
4.124	0.626953125		
4.128	0.61340332		
4.132	0.598754883		
4.136	0.583007813		
4.14	0.566162109		
4.144	0.548217773		
4.148	0.528991699		
4.152	0.508422852		
4.156	0.486450195		
4.16	0.46270752		
4.164	0.437316895		
4.168	0.41027832		
4.172	0.381958008		
4.176	0.352416992		
4.18	0.321960449		
4.184	0.290466309		
4.188	0.257995605		
4.192	0.22467041		
4.196	0.190612793		
4.2	0.156066895		
4.204	0.121582031		
4.208	0.087585449		
4.212	0.054443359		
4.216	0.022277832		
4.22	-0.008850098		
4.224	-0.03894043		
4.228	-0.067749023		
4.232	-0.094970703		
4.236	-0.120483398		
4.24	-0.144165039		
4.244	-0.166137695		
4.248	-0.186706543		
4.252	-0.206176758		
4.256	-0.224487305		
4.26	-0.241516113		
4.264	-0.256896973		
4.268	-0.270812988		
4.272	-0.28302002		
4.276	-0.293945313		
4.28	-0.303894043		
4.284	-0.313110352		
4.288	-0.321960449		
4.292	-0.330383301		
4.296	-0.338195801		
4.3	-0.345214844		
4.304	-0.351135254		
4.308	-0.356018066		
4.312	-0.359924316		
4.316	-0.363220215		
4.32	-0.366271973		
4.324	-0.36932373		
4.328	-0.372314453		
4.332	-0.375061035		
4.336	-0.377563477		
4.34	-0.379638672		
4.344	-0.381347656		
4.348	-0.38293457		
4.352	-0.384155273		
4.356	-0.384887695		
4.36	-0.385253906		
4.364	-0.385314941		
4.368	-0.385070801		
4.372	-0.384643555		
4.376	-0.384216309		
4.38	-0.383850098		
4.384	-0.383483887		
4.388	-0.383239746		
4.392	-0.382995605		
4.396	-0.382751465		
4.4	-0.382263184		
4.404	-0.381591797		
4.408	-0.38079834		
4.412	-0.380126953		
4.416	-0.379638672		
4.42	-0.379211426		
4.424	-0.378479004		
4.428	-0.377258301		
4.432	-0.375366211		
4.436	-0.373168945		
4.44	-0.37109375		
4.444	-0.369445801		
4.448	-0.368408203		
4.452	-0.367675781		
4.456	-0.367004395		
4.46	-0.366027832		
4.464	-0.364501953		
4.468	-0.362670898		
4.472	-0.360412598		
4.476	-0.358154297		
4.48	-0.355957031		
4.484	-0.353881836		
4.488	-0.351989746		
4.492	-0.350097656		
4.496	-0.348327637		
4.5	-0.346557617		
4.504	-0.344604492		
4.508	-0.342895508		
4.512	-0.341308594		
4.516	-0.33972168		
4.52	-0.338134766		
4.524	-0.336486816		
4.528	-0.334838867		
4.532	-0.332824707		
4.536	-0.330810547		
4.54	-0.328979492		
4.544	-0.326904297		
4.548	-0.324890137		
4.552	-0.322753906		
4.556	-0.320678711		
4.56	-0.318664551		
4.564	-0.316772461		
4.568	-0.315124512		
4.572	-0.313476563		
4.576	-0.311767578		
4.58	-0.310119629		
4.584	-0.308349609		
4.588	-0.30657959		
4.592	-0.304748535		
4.596	-0.30291748		
4.6	-0.300964355		
4.604	-0.298706055		
4.608	-0.296325684		
4.612	-0.293945313		
4.616	-0.291748047		
4.62	-0.289733887		
4.624	-0.288024902		
4.628	-0.286437988		
4.632	-0.284851074		
4.636	-0.283203125		
4.64	-0.281616211		
4.644	-0.279907227		
4.648	-0.278259277		
4.652	-0.276550293		
4.656	-0.274902344		
4.66	-0.273071289		
4.664	-0.271240234		
4.668	-0.269592285		
4.672	-0.268127441		
4.676	-0.267211914		
4.68	-0.266479492		
4.684	-0.265991211		
4.688	-0.265441895		
4.692	-0.264709473		
4.696	-0.263671875		
4.7	-0.262512207		
4.704	-0.261230469		
4.708	-0.260070801		
4.712	-0.258911133		
4.716	-0.2578125		
4.72	-0.256774902		
4.724	-0.255615234		
4.728	-0.254394531		
4.732	-0.252990723		
4.736	-0.251403809		
4.74	-0.25		
4.744	-0.248657227		
4.748	-0.247741699		
4.752	-0.246948242		
4.756	-0.246398926		
4.76	-0.245788574		
4.764	-0.245117188		
4.768	-0.24420166		
4.772	-0.242980957		
4.776	-0.241638184		
4.78	-0.24029541		
4.784	-0.239074707		
4.788	-0.238098145		
4.792	-0.237304688		
4.796	-0.236633301		
4.8	-0.235839844		
4.804	-0.23449707		
4.808	-0.232971191		
4.812	-0.231079102		
4.816	-0.229309082		
4.82	-0.227722168		
4.824	-0.2265625		
4.828	-0.225769043		
4.832	-0.224975586		
4.836	-0.223937988		
4.84	-0.222473145		
4.844	-0.22076416		
4.848	-0.219238281		
4.852	-0.217895508		
4.856	-0.21697998		
4.86	-0.216552734		
4.864	-0.216186523		
4.868	-0.215759277		
4.872	-0.215026855		
4.876	-0.214294434		
4.88	-0.213562012		
4.884	-0.21295166		
4.888	-0.212646484		
4.892	-0.212585449		
4.896	-0.212646484		
4.9	-0.212585449		
4.904	-0.212280273		
4.908	-0.211730957		
4.912	-0.21081543		
4.916	-0.209655762		
4.92	-0.208496094		
4.924	-0.207214355		
4.928	-0.205871582		
4.932	-0.204467773		
4.936	-0.202880859		
4.94	-0.200744629		
4.944	-0.197509766		
4.948	-0.192565918		
4.952	-0.184570313		
4.956	-0.171508789		
4.96	-0.151245117		
4.964	-0.121948242		
4.968	-0.083374023		
4.972	-0.036132813		
4.976	0.01763916		
4.98	0.075134277		
4.984	0.133666992		
4.988	0.191101074		
4.992	0.246398926		
4.996	0.29876709		
5	0.347595215		
5.004	0.392883301		
5.008	0.434814453		
5.012	0.473449707		
5.016	0.508728027		
5.02	0.54083252		
5.024	0.569702148		
5.028	0.595275879		
5.032	0.617614746		
5.036	0.636779785		
5.04	0.652832031		
5.044	0.665893555		
5.048	0.67590332		
5.052	0.683166504		
5.056	0.688110352		
5.06	0.691101074		
5.064	0.692504883		
5.068	0.692260742		
5.072	0.690551758		
5.076	0.686950684		
5.08	0.68157959		
5.084	0.674560547		
5.088	0.666137695		
5.092	0.656738281		
5.096	0.646606445		
5.1	0.635986328		
5.104	0.624816895		
5.108	0.612731934		
5.112	0.599731445		
5.116	0.585510254		
5.12	0.5703125		
5.124	0.554199219		
5.128	0.537109375		
5.132	0.518981934		
5.136	0.499572754		
5.14	0.478759766		
5.144	0.456481934		
5.148	0.432739258		
5.152	0.407653809		
5.156	0.381164551		
5.16	0.353393555		
5.164	0.324645996		
5.168	0.29486084		
5.172	0.264282227		
5.176	0.233032227		
5.18	0.200927734		
5.184	0.16796875		
5.188	0.134277344		
5.192	0.100219727		
5.196	0.066101074		
5.2	0.032104492		
5.204	-0.001037598		
5.208	-0.03314209		
5.212	-0.064086914		
5.216	-0.093444824		
5.22	-0.12121582		
5.224	-0.147338867		
5.228	-0.17199707		
5.232	-0.1953125		
5.236	-0.217163086		
5.24	-0.237365723		
5.244	-0.255737305		
5.248	-0.271911621		
5.252	-0.285949707		
5.256	-0.298156738		
5.26	-0.309020996		
5.264	-0.318908691		
5.268	-0.328063965		
5.272	-0.336486816		
5.276	-0.344299316		
5.28	-0.351501465		
5.284	-0.358032227		
5.288	-0.364196777		
5.292	-0.369812012		
5.296	-0.374694824		
5.3	-0.379089355		
5.304	-0.383178711		
5.308	-0.38659668		
5.312	-0.389709473		
5.316	-0.39263916		
5.32	-0.395324707		
5.324	-0.397644043		
5.328	-0.399780273		
5.332	-0.401733398		
5.336	-0.403259277		
5.34	-0.404418945		
5.344	-0.405090332		
5.348	-0.405517578		
5.352	-0.405700684		
5.356	-0.405761719		
5.36	-0.405639648		
5.364	-0.405151367		
5.368	-0.40435791		
5.372	-0.403320313		
5.376	-0.402099609		
5.38	-0.400756836		
5.384	-0.399291992		
5.388	-0.397827148		
5.392	-0.395996094		
5.396	-0.393737793		
5.4	-0.391113281		
5.404	-0.388366699		
5.408	-0.385620117		
5.412	-0.383056641		
5.416	-0.380554199		
5.42	-0.378112793		
5.424	-0.375915527		
5.428	-0.373901367		
5.432	-0.372070313		
5.436	-0.370483398		
5.44	-0.368896484		
5.444	-0.367126465		
5.448	-0.36541748		
5.452	-0.363586426		
5.456	-0.361816406		
5.46	-0.360290527		
5.464	-0.358703613		
5.468	-0.357055664		
5.472	-0.355102539		
5.476	-0.353210449		
5.48	-0.351318359		
5.484	-0.34954834		
5.488	-0.348083496		
5.492	-0.346679688		
5.496	-0.345214844		
5.5	-0.343505859		
5.504	-0.34161377		
5.508	-0.339538574		
5.512	-0.337341309		
5.516	-0.335388184		
5.52	-0.333557129		
5.524	-0.331848145		
5.528	0		
5.532	-0.006164551		
5.536	-0.037475586		
5.54	-0.083374023		
5.544	-0.138000488		
5.548	-0.1953125		
5.552	-0.240966797		
5.556	-0.266723633		
5.56	-0.276977539		
5.564	-0.282165527		
5.568	-0.289489746		
5.572	-0.299804688		
5.576	-0.310974121		
5.58	-0.321105957		
5.584	-0.329467773		
5.588	-0.336547852		
5.592	-0.342956543		
5.596	-0.349121094		
5.6	-0.354980469		
5.604	-0.360229492		
5.608	-0.36505127		
5.612	-0.36907959		
5.616	-0.372741699		
5.62	-0.376159668		
5.624	-0.379394531		
5.628	-0.382446289		
5.632	-0.385314941		
5.636	-0.387634277		
5.64	-0.389526367		
5.644	-0.390991211		
5.648	-0.392211914		
5.652	-0.392944336		
5.656	-0.393615723		
5.66	-0.393920898		
5.664	-0.393798828		
5.668	-0.393371582		
5.672	-0.392700195		
5.676	-0.392028809		
5.68	-0.391357422		
5.684	-0.390686035		
5.688	-0.390197754		
5.692	-0.389587402		
5.696	-0.388793945		
5.7	-0.387878418		
5.704	-0.38684082		
5.708	-0.385559082		
5.712	-0.383972168		
5.716	-0.382141113		
5.72	-0.380126953		
5.724	-0.378051758		
5.728	-0.376159668		
5.732	-0.374328613		
5.736	-0.372741699		
5.74	-0.371154785		
5.744	-0.369445801		
5.748	-0.367858887		
5.752	-0.366088867		
5.756	-0.364501953		
5.76	-0.36315918		
5.764	-0.361999512		
5.768	-0.361083984		
5.772	-0.360351563		
5.776	-0.359680176		
5.78	-0.358703613		
5.784	-0.357055664		
5.788	-0.354919434		
5.792	-0.352478027		
5.796	-0.350036621		
5.8	-0.347961426		
5.804	-0.346374512		
5.808	-0.345031738		
5.812	-0.343505859		
5.816	-0.34185791		
5.82	-0.340148926		
5.824	-0.338500977		
5.828	-0.336914063		
5.832	-0.335144043		
5.836	-0.333312988		
5.84	-0.331237793		
5.844	-0.329040527		
5.848	-0.327026367		
5.852	-0.325317383		
5.856	-0.323547363		
5.86	-0.321655273		
5.864	-0.319519043		
5.868	-0.316955566		
5.872	-0.314086914		
5.876	-0.311218262		
5.88	-0.30847168		
5.884	-0.305847168		
5.888	-0.303405762		
5.892	-0.300842285		
5.896	-0.298278809		
5.9	-0.295471191		
5.904	-0.292663574		
5.908	-0.289916992		
5.912	-0.287353516		
5.916	-0.284912109		
5.92	-0.282592773		
5.924	-0.280395508		
5.928	-0.278442383		
5.932	-0.276672363		
5.936	-0.274963379		
5.94	-0.273132324		
5.944	-0.27130127		
5.948	-0.269470215		
5.952	-0.267578125		
5.956	-0.265869141		
5.96	-0.264465332		
5.964	-0.263122559		
5.968	-0.26171875		
5.972	-0.260253906		
5.976	-0.258789063		
5.98	-0.257385254		
5.984	-0.255981445		
5.988	-0.254638672		
5.992	-0.253051758		
5.996	-0.251159668		
6	-0.249023438		
6.004	-0.246704102		
6.008	-0.244567871		
6.012	-0.242736816		
6.016	-0.241394043		
6.02	-0.240539551		
6.024	-0.24017334		
6.028	-0.239868164		
6.032	-0.239562988		
6.036	-0.239074707		
6.04	-0.23828125		
6.044	-0.237060547		
6.048	-0.235717773		
6.052	-0.234191895		
6.056	-0.232666016		
6.06	-0.231079102		
6.064	-0.229553223		
6.068	-0.228271484		
6.072	-0.227050781		
6.076	-0.225891113		
6.08	-0.22479248		
6.084	-0.223754883		
6.088	-0.22277832		
6.092	-0.221984863		
6.096	-0.221496582		
6.1	-0.221313477		
6.104	-0.221069336		
6.108	-0.220825195		
6.112	-0.220336914		
6.116	-0.219848633		
6.12	-0.219421387		
6.124	-0.218994141		
6.128	-0.218688965		
6.132	-0.218017578		
6.136	-0.217041016		
6.14	-0.215515137		
6.144	-0.213562012		
6.148	-0.211486816		
6.152	-0.209289551		
6.156	-0.20715332		
6.16	-0.20513916		
6.164	-0.203308105		
6.168	-0.201965332		
6.172	-0.201049805		
6.176	-0.200500488		
6.18	-0.200195313		
6.184	-0.200073242		
6.188	-0.199890137		
6.192	-0.199462891		
6.196	-0.199035645		
6.2	-0.198669434		
6.204	-0.198181152		
6.208	-0.197509766		
6.212	-0.196655273		
6.216	-0.1953125		
6.22	-0.193054199		
6.224	-0.188964844		
6.228	-0.182006836		
6.232	-0.170166016		
6.236	-0.151367188		
6.24	-0.124206543		
6.244	-0.088439941		
6.248	-0.045043945		
6.252	0.00378418		
6.256	0.055786133		
6.26	0.108764648		
6.264	0.161132813		
6.268	0.211914063		
6.272	0.260253906		
6.276	0.305603027		
6.28	0.347473145		
6.284	0.385498047		
6.288	0.419616699		
6.292	0.450134277		
6.296	0.477172852		
6.3	0.500793457		
6.304	0.521179199		
6.308	0.538452148		
6.312	0.55267334		
6.316	0.564147949		
6.32	0.573059082		
6.324	0.579650879		
6.328	0.58416748		
6.332	0.586853027		
6.336	0.587768555		
6.34	0.586853027		
6.344	0.584228516		
6.348	0.57989502		
6.352	0.573913574		
6.356	0.56652832		
6.36	0.557983398		
6.364	0.548583984		
6.368	0.538391113		
6.372	0.527587891		
6.376	0.516174316		
6.38	0.50390625		
6.384	0.490661621		
6.388	0.476379395		
6.392	0.46105957		
6.396	0.444580078		
6.4	0.427001953		
6.404	0.408691406		
6.408	0.389526367		
6.412	0.369445801		
6.416	0.348327637		
6.42	0.325927734		
6.424	0.302246094		
6.428	0.277099609		
6.432	0.250671387		
6.436	0.222900391		
6.44	0.193786621		
6.444	0.163574219		
6.448	0.132324219		
6.452	0.100585938		
6.456	0.068847656		
6.46	0.037719727		
6.464	0.007568359		
6.468	-0.02142334		
6.472	-0.04901123		
6.476	-0.075195313		
6.48	-0.099914551		
6.484	-0.123168945		
6.488	-0.144958496		
6.492	-0.165222168		
6.496	-0.184082031		
6.5	-0.201599121		
6.504	-0.218017578		
6.508	-0.233459473		
6.512	-0.247802734		
6.516	-0.260986328		
6.52	-0.272766113		
6.524	-0.283081055		
6.528	-0.292114258		
6.532	-0.300109863		
6.536	-0.307373047		
6.54	-0.31427002		
6.544	-0.320800781		
6.548	-0.326965332		
6.552	-0.332580566		
6.556	-0.33770752		
6.56	-0.342163086		
6.564	-0.346008301		
6.568	-0.349304199		
6.572	-0.352111816		
6.576	-0.354675293		
6.58	-0.357116699		
6.584	-0.359375		
6.588	-0.36151123		
6.592	-0.363464355		
6.596	-0.36517334		
6.6	-0.366638184		
6.604	-0.367736816		
6.608	-0.368591309		
6.612	-0.369018555		
6.616	-0.36907959		
6.62	-0.368835449		
6.624	-0.368408203		
6.628	-0.368041992		
6.632	-0.367614746		
6.636	-0.367248535		
6.64	-0.366882324		
6.644	-0.366638184		
6.648	-0.366271973		
6.652	-0.365600586		
6.656	-0.364868164		
6.66	-0.363769531		
6.664	-0.362426758		
6.668	-0.361083984		
6.672	-0.359619141		
6.676	-0.358215332		
6.68	-0.356750488		
6.684	-0.355285645		
6.688	-0.35369873		
6.692	-0.352172852		
6.696	-0.350830078		
6.7	-0.34954834		
6.704	-0.348144531		
6.708	-0.346740723		
6.712	-0.344909668		
6.716	-0.342895508		
6.72	-0.340942383		
6.724	-0.338989258		
6.728	-0.337341309		
6.732	-0.335876465		
6.736	-0.334533691		
6.74	-0.333129883		
6.744	-0.331542969		
6.748	-0.329650879		
6.752	-0.327636719		
6.756	-0.325561523		
6.76	-0.323791504		
6.764	-0.32220459		
6.768	-0.320861816		
6.772	-0.319458008		
6.776	-0.318054199		
6.78	-0.316467285		
6.784	-0.314819336		
6.788	-0.313354492		
6.792	-0.312011719		
6.796	-0.31072998		
6.8	-0.309448242		
6.804	-0.307922363		
6.808	-0.306091309		
6.812	-0.303955078		
6.816	-0.301574707		
6.82	-0.299133301		
6.824	-0.296691895		
6.828	-0.294616699		
6.832	-0.292907715		
6.836	-0.291503906		
6.84	-0.290344238		
6.844	-0.28918457		
6.848	-0.288024902		
6.852	-0.286560059		
6.856	-0.284912109		
6.86	-0.28338623		
6.864	-0.281860352		
6.868	-0.280517578		
6.872	-0.279296875		
6.876	-0.278198242		
6.88	-0.276794434		
6.884	-0.27520752		
6.888	-0.274047852		
6.892	-0.273071289		
6.896	-0.272216797		
6.9	-0.271606445		
6.904	-0.270996094		
6.908	-0.270080566		
6.912	-0.268920898		
6.916	-0.26776123		
6.92	-0.266540527		
6.924	-0.265014648		
6.928	-0.263183594		
6.932	-0.261230469		
6.936	-0.259155273		
6.94	-0.257141113		
6.944	-0.255432129		
6.948	-0.254089355		
6.952	-0.252807617		
6.956	-0.251464844		
6.96	-0.24987793		
6.964	-0.248168945		
6.968	-0.246582031		
6.972	-0.244995117		
6.976	-0.243713379		
6.98	-0.242492676		
6.984	-0.241271973		
6.988	-0.239868164		
6.992	-0.238464355		
6.996	-0.237060547		
7	-0.235656738		
7.004	-0.23425293		
7.008	-0.233032227		
7.012	-0.231811523		
7.016	-0.230773926		
7.02	-0.229675293		
7.024	-0.22857666		
7.028	-0.227661133		
7.032	-0.226745605		
7.036	-0.225830078		
7.04	-0.225036621		
7.044	-0.224182129		
7.048	-0.223388672		
7.052	-0.222473145		
7.056	-0.221801758		
7.06	-0.221069336		
7.064	-0.220214844		
7.068	-0.219238281		
7.072	-0.218383789		
7.076	-0.217712402		
7.08	-0.217285156		
7.084	-0.217041016		
7.088	-0.216674805		
7.092	-0.215881348		
7.096	-0.214782715		
7.1	-0.213439941		
7.104	-0.212158203		
7.108	-0.211181641		
7.112	-0.210327148		
7.116	-0.209899902		
7.12	-0.209899902		
7.124	-0.209777832		
7.128	-0.209533691		
7.132	-0.208740234		
7.136	-0.207275391		
7.14	-0.205322266		
7.144	-0.203186035		
7.148	-0.20135498		
7.152	-0.199951172		
7.156	-0.198669434		
7.16	-0.19732666		
7.164	-0.195922852		
7.168	-0.194396973		
7.172	-0.192810059		
7.176	-0.191345215		
7.18	-0.189819336		
7.184	-0.187988281		
7.188	-0.185241699		
7.192	-0.180114746		
7.196	-0.171142578		
7.2	-0.156005859		
7.204	-0.13269043		
7.208	-0.100280762		
7.212	-0.059082031		
7.216	-0.010681152		
7.22	0.042541504		
7.224	0.098205566		
7.228	0.15411377		
7.232	0.208984375		
7.236	0.262023926		
7.24	0.312133789		
7.244	0.358825684		
7.248	0.401794434		
7.252	0.440795898		
7.256	0.475952148		
7.26	0.507751465		
7.264	0.536376953		
7.268	0.561706543		
7.272	0.58380127		
7.276	0.602539063		
7.28	0.618103027		
7.284	0.63092041		
7.288	0.641418457		
7.292	0.649719238		
7.296	0.655883789		
7.3	0.659790039		
7.304	0.661804199		
7.308	0.66217041		
7.312	0.661010742		
7.316	0.658691406		
7.32	0.655151367		
7.324	0.650268555		
7.328	0.643798828		
7.332	0.635742188		
7.336	0.626281738		
7.34	0.615539551		
7.344	0.60369873		
7.348	0.590942383		
7.352	0.577697754		
7.356	0.564025879		
7.36	0.550170898		
7.364	0.536071777		
7.368	0.52130127		
7.372	0.50604248		
7.376	0.489929199		
7.38	0.472961426		
7.384	0.455078125		
7.388	0.436340332		
7.392	0.416748047		
7.396	0.396057129		
7.4	0.374023438		
7.404	0.350585938		
7.408	0.325683594		
7.412	0.299377441		
7.416	0.271606445		
7.42	0.242736816		
7.424	0.212890625		
7.428	0.182128906		
7.432	0.150756836		
7.436	0.118896484		
7.44	0.086853027		
7.444	0.0546875		
7.448	0.022766113		
7.452	-0.008605957		
7.456	-0.039245605		
7.46	-0.068786621		
7.464	-0.096923828		
7.468	-0.123352051		
7.472	-0.147888184		
7.476	-0.170471191		
7.48	-0.19128418		
7.484	-0.210693359		
7.488	-0.228881836		
7.492	-0.245849609		
7.496	-0.26171875		
7.5	-0.276428223		
7.504	-0.289978027		
7.508	-0.302490234		
7.512	-0.313903809		
7.516	-0.324279785		
7.52	-0.333618164		
7.524	-0.34197998		
7.528	-0.34954834		
7.532	-0.356567383		
7.536	-0.362976074		
7.54	-0.368530273		
7.544	-0.373352051		
7.548	-0.377624512		
7.552	-0.381469727		
7.556	-0.385009766		
7.56	-0.388427734		
7.564	-0.391601563		
7.568	-0.39453125		
7.572	-0.397094727		
7.576	-0.399597168		
7.58	-0.401855469		
7.584	-0.403991699		
7.588	-0.405883789		
7.592	-0.407348633		
7.596	-0.408203125		
7.6	-0.408325195		
7.604	-0.40802002		
7.608	-0.407348633		
7.612	-0.40612793		
7.616	-0.404663086		
7.62	-0.402954102		
7.624	-0.401000977		
7.628	-0.399169922		
7.632	-0.397644043		
7.636	-0.396362305		
7.64	-0.395385742		
7.644	-0.394470215		
7.648	-0.393554688		
7.652	-0.39251709		
7.656	-0.391418457		
7.66	-0.39050293		
7.664	-0.389648438		
7.668	-0.38861084		
7.672	-0.387451172		
7.676	-0.386291504		
7.68	-0.385131836		
7.684	-0.383911133		
7.688	-0.382568359		
7.692	-0.380981445		
7.696	-0.37902832		
7.7	-0.376586914		
7.704	-0.374084473		
7.708	-0.371582031		
7.712	-0.369384766		
7.716	-0.367614746		
7.72	-0.365966797		
7.724	-0.364196777		
7.728	-0.362365723		
7.732	-0.360412598		
7.736	-0.358398438		
7.74	-0.356384277		
7.744	-0.354187012		
7.748	-0.351928711		
7.752	-0.349365234		
7.756	-0.346740723		
7.76	-0.344360352		
7.764	-0.342163086		
7.768	-0.33996582		
7.772	-0.337890625		
7.776	-0.335632324		
7.78	-0.332946777		
7.784	-0.33013916		
7.788	-0.327514648		
7.792	-0.325073242		
7.796	-0.322814941		
7.8	-0.320861816		
7.804	-0.319030762		
7.808	-0.317199707		
7.812	-0.315063477		
7.816	-0.312866211		
7.82	-0.310791016		
7.824	-0.308776855		
7.828	-0.30682373		
7.832	-0.304992676		
7.836	-0.303161621		
7.84	-0.301330566		
7.844	-0.299560547		
7.848	-0.298156738		
7.852	-0.29699707		
7.856	-0.295898438		
7.86	-0.294616699		
7.864	-0.293029785		
7.868	-0.291259766		
7.872	-0.289367676		
7.876	-0.287719727		
7.88	-0.286254883		
7.884	-0.284912109		
7.888	-0.283508301		
7.892	-0.281982422		
7.896	-0.280395508		
7.9	-0.278747559		
7.904	-0.277099609		
7.908	-0.275390625		
7.912	-0.27355957		
7.916	-0.27154541		
7.92	-0.26940918		
7.924	-0.267272949		
7.928	-0.265258789		
7.932	-0.263366699		
7.936	-0.26159668		
7.94	-0.259887695		
7.944	-0.258422852		
7.948	-0.257263184		
7.952	-0.256225586		
7.956	-0.255187988		
7.96	-0.253967285		
7.964	-0.252563477		
7.968	-0.250976563		
7.972	-0.249267578		
7.976	-0.247741699		
7.98	-0.24621582		
7.984	-0.244689941		
7.988	-0.243103027		
7.992	-0.241577148		
7.996	-0.240234375		
8	-0.239135742		
8.004	-0.23815918		
8.008	-0.237182617		
8.012	-0.236083984		
8.016	-0.234985352		
8.02	-0.233947754		
8.024	-0.232971191		
8.028	-0.232055664		
8.032	-0.231018066		
8.036	-0.229736328		
8.04	-0.22833252		
8.044	-0.226928711		
8.048	-0.225646973		
8.052	-0.22442627		
8.056	-0.223205566		
8.06	-0.221679688		
8.064	-0.220214844		
8.068	-0.218933105		
8.072	-0.217895508		
8.076	-0.217102051		
8.08	-0.216308594		
8.084	-0.215515137		
8.088	-0.21484375		
8.092	-0.213928223		
8.096	-0.21295166		
8.1	-0.212036133		
8.104	-0.211181641		
8.108	-0.210266113		
8.112	-0.209289551		
8.116	-0.208251953		
8.12	-0.207092285		
8.124	-0.204833984		
8.128	-0.200439453		
8.132	-0.192077637		
8.136	-0.177734375		
8.14	-0.155334473		
8.144	-0.123962402		
8.148	-0.08404541		
8.152	-0.036987305		
8.156	0.014526367		
8.16	0.068359375		
8.164	0.122497559		
8.168	0.175537109		
8.172	0.226623535		
8.176	0.27520752		
8.18	0.320739746		
8.184	0.362670898		
8.188	0.400756836		
8.192	0.434936523		
8.196	0.465270996		
8.2	0.49206543		
8.204	0.515625		
8.208	0.536132813		
8.212	0.553649902		
8.216	0.568237305		
8.22	0.57989502		
8.224	0.588928223		
8.228	0.595458984		
8.232	0.599731445		
8.236	0.601928711		
8.24	0.602050781		
8.244	0.600219727		
8.248	0.596374512		
8.252	0.591125488		
8.256	0.584472656		
8.26	0.576782227		
8.264	0.567993164		
8.268	0.557983398		
8.272	0.546936035		
8.276	0.534790039		
8.28	0.521789551		
8.284	0.508239746		
8.288	0.49432373		
8.292	0.479919434		
8.296	0.46472168		
8.3	0.448791504		
8.304	0.431945801		
8.308	0.414123535		
8.312	0.395263672		
8.316	0.37512207		
8.32	0.353759766		
8.324	0.331176758		
8.328	0.307312012		
8.332	0.282165527		
8.336	0.25579834		
8.34	0.228149414		
8.344	0.19921875		
8.348	0.169311523		
8.352	0.138549805		
8.356	0.10723877		
8.36	0.075683594		
8.364	0.044372559		
8.368	0.01385498		
8.372	-0.015625		
8.376	-0.043762207		
8.38	-0.07043457		
8.384	-0.095703125		
8.388	-0.119689941		
8.392	-0.14239502		
8.396	-0.163818359		
8.4	-0.183776855		
8.404	-0.202209473		
8.408	-0.219299316		
8.412	-0.235229492		
8.416	-0.250061035		
8.42	-0.263916016		
8.424	-0.276733398		
8.428	-0.288391113		
8.432	-0.298706055		
8.436	-0.307617188		
8.44	-0.315307617		
8.444	-0.322265625		
8.448	-0.328491211		
8.452	-0.33416748		
8.456	-0.339599609		
8.46	-0.344604492		
8.464	-0.349121094		
8.468	-0.353271484		
8.472	-0.356994629		
8.476	-0.360473633		
8.48	-0.363586426		
8.484	-0.366394043		
8.488	-0.368835449		
8.492	-0.370910645		
8.496	-0.37286377		
8.5	-0.374633789		
8.504	-0.376342773		
8.508	-0.377990723		
8.512	-0.379333496		
8.516	-0.380249023		
8.52	-0.380737305		
8.524	-0.38092041		
8.528	-0.38092041		
8.532	-0.38067627		
8.536	-0.380432129		
8.54	-0.380310059		
8.544	-0.380371094		
8.548	-0.380310059		
8.552	-0.380065918		
8.556	-0.379455566		
8.56	-0.378234863		
8.564	-0.376647949		
8.568	-0.375244141		
8.572	-0.373901367		
8.576	-0.372680664		
8.58	-0.371459961		
8.584	-0.369995117		
8.588	-0.368469238		
8.592	-0.366882324		
8.596	-0.36529541		
8.6	-0.363769531		
8.604	-0.362304688		
8.608	-0.360778809		
8.612	-0.359191895		
8.616	-0.35760498		
8.62	-0.355957031		
8.624	-0.354187012		
8.628	-0.352233887		
8.632	-0.349975586		
8.636	-0.347595215		
8.64	-0.345336914		
8.644	-0.343078613		
8.648	-0.341003418		
8.652	-0.338989258		
8.656	-0.337341309		
8.66	-0.33581543		
8.664	-0.334411621		
8.668	-0.333068848		
8.672	-0.331604004		
8.676	-0.329956055		
8.68	-0.328063965		
8.684	-0.326049805		
8.688	-0.323852539		
8.692	-0.321411133		
8.696	-0.319030762		
8.7	-0.316589355		
8.704	-0.314208984		
8.708	-0.312072754		
8.712	-0.309997559		
8.716	-0.308105469		
8.72	-0.306274414		
8.724	-0.304443359		
8.728	-0.30255127		
8.732	-0.300598145		
8.736	-0.298461914		
8.74	-0.296264648		
8.744	-0.294189453		
8.748	-0.292236328		
8.752	-0.290466309		
8.756	-0.289001465		
8.76	-0.287536621		
8.764	-0.286010742		
8.768	-0.284301758		
8.772	-0.282348633		
8.776	-0.280395508		
8.78	-0.278381348		
8.784	-0.276428223		
8.788	-0.274658203		
8.792	-0.272705078		
8.796	-0.270812988		
8.8	-0.269165039		
8.804	-0.26739502		
8.808	-0.265808105		
8.812	-0.264160156		
8.816	-0.262634277		
8.82	-0.261230469		
8.824	-0.260009766		
8.828	-0.258972168		
8.832	-0.258056641		
8.836	-0.256958008		
8.84	-0.255554199		
8.844	-0.253967285		
8.848	-0.252258301		
8.852	-0.250732422		
8.856	-0.249267578		
8.86	-0.24786377		
8.864	-0.246520996		
8.868	-0.245117188		
8.872	-0.243896484		
8.876	-0.243041992		
8.88	-0.242492676		
8.884	-0.242248535		
8.888	-0.2421875		
8.892	-0.241943359		
8.896	-0.241455078		
8.9	-0.240722656		
8.904	-0.239685059		
8.908	-0.238647461		
8.912	-0.237609863		
8.916	-0.236755371		
8.92	-0.235961914		
8.924	-0.235290527		
8.928	-0.234558105		
8.932	-0.233581543		
8.936	-0.232421875		
8.94	-0.230957031		
8.944	-0.229370117		
8.948	-0.227722168		
8.952	-0.226135254		
8.956	-0.224853516		
8.96	-0.223754883		
8.964	-0.222961426		
8.968	-0.222290039		
8.972	-0.221557617		
8.976	-0.22064209		
8.98	-0.219482422		
8.984	-0.218017578		
8.988	-0.216674805		
8.992	-0.215515137		
8.996	-0.214477539		
9	-0.213500977		
9.004	-0.21270752		
9.008	-0.211914063		
9.012	-0.2109375		
9.016	-0.209716797		
9.02	-0.208374023		
9.024	-0.206848145		
9.028	-0.205383301		
9.032	-0.204223633		
9.036	-0.203308105		
9.04	-0.202636719		
9.044	-0.202087402		
9.048	-0.201599121		
9.052	-0.200805664		
9.056	-0.199829102		
9.06	-0.198730469		
9.064	-0.197631836		
9.068	-0.196716309		
9.072	-0.196105957		
9.076	-0.195800781		
9.08	-0.195251465		
9.084	-0.194091797		
9.088	-0.191101074		
9.092	-0.184631348		
9.096	-0.172668457		
9.1	-0.153076172		
9.104	-0.124267578		
9.108	-0.085998535		
9.112	-0.039489746		
9.116	0.013000488		
9.12	0.068969727		
9.124	0.125915527		
9.128	0.182128906		
9.132	0.23638916		
9.136	0.287902832		
9.14	0.336242676		
9.144	0.38104248		
9.148	0.422119141		
9.152	0.459350586		
9.156	0.492797852		
9.16	0.522583008		
9.164	0.548950195		
9.168	0.572509766		
9.172	0.593505859		
9.176	0.611999512		
9.18	0.627990723		
9.184	0.641296387		
9.188	0.651733398		
9.192	0.659484863		
9.196	0.664611816		
9.2	0.667724609		
9.204	0.668945313		
9.208	0.668518066		
9.212	0.666564941		
9.216	0.663208008		
9.22	0.658447266		
9.224	0.65234375		
9.228	0.645080566		
9.232	0.636779785		
9.236	0.627746582		
9.24	0.617919922		
9.244	0.607177734		
9.248	0.59552002		
9.252	0.582824707		
9.256	0.568847656		
9.26	0.554138184		
9.264	0.538879395		
9.268	0.523376465		
9.272	0.507507324		
9.276	0.491149902		
9.28	0.474243164		
9.284	0.456298828		
9.288	0.436889648		
9.292	0.41607666		
9.296	0.393981934		
9.3	0.370666504		
9.304	0.346191406		
9.308	0.320617676		
9.312	0.293823242		
9.316	0.26550293		
9.32	0.235839844		
9.324	0.20513916		
9.328	0.17388916		
9.332	0.14251709		
9.336	0.11114502		
9.34	0.079772949		
9.344	0.048278809		
9.348	0.016723633		
9.352	-0.014160156		
9.356	-0.044189453		
9.36	-0.072875977		
9.364	-0.099853516		
9.368	-0.125061035		
9.372	-0.148681641		
9.376	-0.170959473		
9.38	-0.191772461		
9.384	-0.211303711		
9.388	-0.229370117		
9.392	-0.245849609		
9.396	-0.260742188		
9.4	-0.274047852		
9.404	-0.285888672		
9.408	-0.296569824		
9.412	-0.306396484		
9.416	-0.315856934		
9.42	-0.324890137		
9.424	-0.333496094		
9.428	-0.341369629		
9.432	-0.348205566		
9.436	-0.354125977		
9.44	-0.35925293		
9.444	-0.363952637		
9.448	-0.368469238		
9.452	-0.372802734		
9.456	-0.37677002		
9.46	-0.380004883		
9.464	-0.38269043		
9.468	-0.384887695		
9.472	-0.386901855		
9.476	-0.388916016		
9.48	-0.390930176		
9.484	-0.393066406		
9.488	-0.395080566		
9.492	-0.396972656		
9.496	-0.398803711		
9.5	-0.40057373		
9.504	-0.402282715		
9.508	-0.403808594		
9.512	-0.404785156		
9.516	-0.405273438		
9.52	-0.405151367		
9.524	-0.404663086		
9.528	-0.404052734		
9.532	-0.403686523		
9.536	-0.403381348		
9.54	-0.403137207		
9.544	-0.402954102		
9.548	-0.402648926		
9.552	-0.402160645		
9.556	-0.401611328		
9.56	-0.401000977		
9.564	-0.400085449		
9.568	-0.398742676		
9.572	-0.397277832		
9.576	-0.395812988		
9.58	-0.39440918		
9.584	-0.393188477		
9.588	-0.391967773		
9.592	-0.390625		
9.596	-0.389099121		
9.6	-0.387084961		
9.604	-0.384887695		
9.608	-0.382507324		
9.612	-0.380126953		
9.616	-0.378112793		
9.62	-0.376464844		
9.624	-0.375061035		
9.628	-0.373596191		
9.632	-0.371887207		
9.636	-0.369750977		
9.64	-0.367248535		
9.644	-0.364868164		
9.648	-0.362792969		
9.652	-0.360900879		
9.656	-0.359130859		
9.66	-0.357116699		
9.664	-0.354919434		
9.668	-0.352539063		
9.672	-0.350158691		
9.676	-0.347839355		
9.68	-0.345581055		
9.684	-0.343383789		
9.688	-0.341308594		
9.692	-0.339294434		
9.696	-0.337219238		
9.7	-0.335083008		
9.704	-0.332885742		
9.708	-0.330505371		
9.712	-0.32800293		
9.716	-0.325561523		
9.72	-0.323303223		
9.724	-0.321166992		
9.728	-0.319213867		
9.732	-0.317443848		
9.736	-0.315612793		
9.74	-0.313659668		
9.744	-0.311889648		
9.748	-0.310241699		
9.752	-0.308532715		
9.756	-0.306762695		
9.76	-0.305114746		
9.764	-0.303405762		
9.768	-0.301574707		
9.772	-0.299621582		
9.776	-0.297729492		
9.78	-0.295471191		
9.784	-0.29296875		
9.788	-0.290588379		
9.792	-0.288391113		
9.796	-0.286621094		
9.8	-0.28515625		
9.804	-0.283874512		
9.808	-0.282531738		
9.812	-0.28112793		
9.816	-0.27947998		
9.82	-0.277832031		
9.824	-0.276245117		
9.828	-0.274475098		
9.832	-0.272766113		
9.836	-0.271240234		
9.84	-0.269775391		
9.844	-0.268432617		
9.848	-0.267150879		
9.852	-0.265991211		
9.856	-0.264892578		
9.86	-0.263549805		
9.864	-0.262268066		
9.868	-0.260925293		
9.872	-0.259460449		
9.876	-0.258056641		
9.88	-0.256530762		
9.884	-0.255065918		
9.888	-0.253601074		
9.892	-0.252075195		
9.896	-0.250549316		
9.9	-0.249084473		
9.904	-0.247680664		
9.908	-0.24621582		
9.912	-0.244628906		
9.916	-0.243164063		
9.92	-0.241638184		
9.924	-0.24017334		
9.928	-0.238586426		
9.932	-0.236938477		
9.936	-0.235290527		
9.94	-0.233459473		
9.944	-0.231750488		
9.948	-0.23046875		
9.952	-0.229736328		
9.956	-0.229248047		
9.96	-0.228515625		
9.964	-0.227539063		
9.968	-0.226135254		
9.972	-0.22454834		
9.976	-0.223083496		
9.98	-0.221862793		
9.984	-0.220947266		
9.988	-0.219909668		
9.992	-0.21862793		
9.996	-0.217285156		
10	-0.215881348		
10.004	-0.214782715		
10.008	-0.213928223		
10.012	-0.213195801		
10.016	-0.212463379		
10.02	-0.211181641		
10.024	-0.208862305		
10.028	-0.204772949		
10.032	-0.197753906		
10.036	-0.186096191		
10.04	-0.167419434		
10.044	-0.140014648		
10.048	-0.103393555		
10.052	-0.057922363		
10.056	-0.005615234		
10.06	0.050842285		
10.064	0.108764648		
10.068	0.166320801		
10.072	0.222412109		
10.076	0.276123047		
10.08	0.326660156		
10.084	0.373474121		
10.088	0.416381836		
10.092	0.45513916		
10.096	0.489929199		
10.1	0.521118164		
10.104	0.549194336		
10.108	0.574035645		
10.112	0.595581055		
10.116	0.613891602		
10.12	0.62878418		
10.124	0.640625		
10.128	0.649597168		
10.132	0.655944824		
10.136	0.660095215		
10.14	0.662475586		
10.144	0.662780762		
10.148	0.661437988		
10.152	0.658630371		
10.156	0.654602051		
10.16	0.649414063		
10.164	0.643066406		
10.168	0.635498047		
10.172	0.626708984		
10.176	0.616577148		
10.18	0.605407715		
10.184	0.593383789		
10.188	0.580810547		
10.192	0.567932129		
10.196	0.5546875		
10.2	0.54095459		
10.204	0.526550293		
10.208	0.511474609		
10.212	0.495605469		
10.216	0.47857666		
10.22	0.460571289		
10.224	0.441650391		
10.228	0.421569824		
10.232	0.400268555		
10.236	0.377624512		
10.24	0.353637695		
10.244	0.328063965		
10.248	0.300964355		
10.252	0.272766113		
10.256	0.243591309		
10.26	0.213684082		
10.264	0.182922363		
10.268	0.151611328		
10.272	0.119934082		
10.276	0.087890625		
10.28	0.055908203		
10.284	0.024047852		
10.288	-0.007202148		
10.292	-0.037780762		
10.296	-0.067138672		
10.3	-0.094726563		
10.304	-0.120544434		
10.308	-0.14465332		
10.312	-0.167053223		
10.316	-0.187744141		
10.32	-0.20703125		
10.324	-0.224914551		
10.328	-0.241455078		
10.332	-0.256713867		
10.336	-0.270874023		
10.34	-0.283874512		
10.344	-0.295837402		
10.348	-0.30670166		
10.352	-0.316589355		
10.356	-0.325683594		
10.36	-0.33392334		
10.364	-0.341369629		
10.368	-0.348022461		
10.372	-0.354003906		
10.376	-0.359375		
10.38	-0.364196777		
10.384	-0.368774414		
10.388	-0.373046875		
10.392	-0.376953125		
10.396	-0.380493164		
10.4	-0.383666992		
10.404	-0.386413574		
10.408	-0.388671875		
10.412	-0.390625		
10.416	-0.392333984		
10.42	-0.393859863		
10.424	-0.395385742		
10.428	-0.396728516		
10.432	-0.398010254		
10.436	-0.399047852		
10.44	-0.399780273		
10.444	-0.400512695		
10.448	-0.401123047		
10.452	-0.401611328		
10.456	-0.402099609		
10.46	-0.40246582		
10.464	-0.402709961		
10.468	-0.402770996		
10.472	-0.402587891		
10.476	-0.402282715		
10.48	-0.401550293		
10.484	-0.400512695		
10.488	-0.399169922		
10.492	-0.397705078		
10.496	-0.396240234		
10.5	-0.394775391		
10.504	-0.393127441		
10.508	-0.391418457		
10.512	-0.389587402		
10.516	-0.387756348		
10.52	-0.386169434		
10.524	-0.384765625		
10.528	-0.383361816		
10.532	-0.381835938		
10.536	-0.380126953		
10.54	-0.378051758		
10.544	-0.375732422		
10.548	-0.373168945		
10.552	-0.370605469		
10.556	-0.368103027		
10.56	-0.365478516		
10.564	-0.363037109		
10.568	-0.360595703		
10.572	-0.358032227		
10.576	-0.355529785		
10.58	-0.352844238		
10.584	-0.349975586		
10.588	-0.347045898		
10.592	-0.344055176		
10.596	-0.341186523		
10.6	-0.338623047		
10.604	-0.336547852		
10.608	-0.334716797		
10.612	-0.332946777		
10.616	-0.331176758		
10.62	-0.329284668		
10.624	-0.327331543		
10.628	-0.325439453		
10.632	-0.323730469		
10.636	-0.322143555		
10.64	-0.3203125		
10.644	-0.31829834		
10.648	-0.316101074		
10.652	-0.313720703		
10.656	-0.311218262		
10.66	-0.308837891		
10.664	-0.30670166		
10.668	-0.304748535		
10.672	-0.30291748		
10.676	-0.301452637		
10.68	-0.300109863		
10.684	-0.29876709		
10.688	-0.297424316		
10.692	-0.296203613		
10.696	-0.29498291		
10.7	-0.293640137		
10.704	-0.292114258		
10.708	-0.290527344		
10.712	-0.288757324		
10.716	-0.286804199		
10.72	-0.284729004		
10.724	-0.282897949		
10.728	-0.281066895		
10.732	-0.279296875		
10.736	-0.277648926		
10.74	-0.276123047		
10.744	-0.274780273		
10.748	-0.273376465		
10.752	-0.271972656		
10.756	-0.270568848		
10.76	-0.269104004		
10.764	-0.267700195		
10.768	-0.266540527		
10.772	-0.265319824		
10.776	-0.264160156		
10.78	-0.262695313		
10.784	-0.260925293		
10.788	-0.258911133		
10.792	-0.256958008		
10.796	-0.255065918		
10.8	-0.253479004		
10.804	-0.25213623		
10.808	-0.250732422		
10.812	-0.249328613		
10.816	-0.24786377		
10.82	-0.246398926		
10.824	-0.245239258		
10.828	-0.244384766		
10.832	-0.243774414		
10.836	-0.243286133		
10.84	-0.242675781		
10.844	-0.241943359		
10.848	-0.241088867		
10.852	-0.24041748		
10.856	-0.240112305		
10.86	-0.240112305		
10.864	-0.24041748		
10.868	-0.240356445		
10.872	-0.239746094		
10.876	-0.238525391		
10.88	-0.236877441		
10.884	-0.234863281		
10.888	-0.232849121		
10.892	-0.231140137		
10.896	-0.229675293		
10.9	-0.228027344		
10.904	-0.226318359		
10.908	-0.224731445		
10.912	-0.223205566		
10.916	-0.221679688		
10.92	-0.220397949		
10.924	-0.219299316		
10.928	-0.218383789		
10.932	-0.217590332		
10.936	-0.216918945		
10.94	-0.216247559		
10.944	-0.215454102		
10.948	-0.214416504		
10.952	-0.213195801		
10.956	-0.211975098		
10.96	-0.21081543		
10.964	-0.209899902		
10.968	-0.20916748		
10.972	-0.208618164		
10.976	-0.208129883		
10.98	-0.207580566		
10.984	-0.206665039		
10.988	-0.205200195		
10.992	-0.203063965		
10.996	-0.199768066		
11	-0.194396973		
11.004	-0.18572998		
11.008	-0.171569824		
11.012	-0.149658203		
11.016	-0.118713379		
11.02	-0.078735352		
11.024	-0.031188965		
11.028	0.021362305		
11.032	0.076293945		
11.036	0.131591797		
11.04	0.185791016		
11.044	0.237854004		
11.048	0.28729248		
11.052	0.333374023		
11.056	0.375793457		
11.06	0.414611816		
11.064	0.449707031		
11.068	0.481201172		
11.072	0.509155273		
11.076	0.533447266		
11.08	0.554077148		
11.084	0.571350098		
11.088	0.585449219		
11.092	0.596923828		
11.096	0.605712891		
11.1	0.612060547		
11.104	0.615966797		
11.108	0.617614746		
11.112	0.617004395		
11.116	0.614318848		
11.12	0.609741211		
11.124	0.60345459		
11.128	0.595947266		
11.132	0.587402344		
11.136	0.577941895		
11.14	0.567565918		
11.144	0.556091309		
11.148	0.543518066		
11.152	0.529968262		
11.156	0.51550293		
11.16	0.500427246		
11.164	0.484558105		
11.168	0.468078613		
11.172	0.450866699		
11.176	0.432617188		
11.18	0.413208008		
11.184	0.39263916		
11.188	0.370788574		
11.192	0.347412109		
11.196	0.322570801		
11.2	0.296325684		
11.204	0.268554688		
11.208	0.239685059		
11.212	0.209960938		
11.216	0.179626465		
11.22	0.149108887		
11.224	0.118408203		
11.228	0.08770752		
11.232	0.057006836		
11.236	0.026794434		
11.24	-0.002624512		
11.244	-0.031311035		
11.248	-0.05859375		
11.252	-0.084472656		
11.256	-0.108886719		
11.26	-0.131530762		
11.264	-0.15246582		
11.268	-0.171691895		
11.272	-0.189331055		
11.276	-0.205566406		
11.28	-0.220703125		
11.284	-0.234741211		
11.288	-0.247741699		
11.292	-0.259765625		
11.296	-0.270812988		
11.3	-0.280761719		
11.304	-0.289978027		
11.308	-0.298522949		
11.312	-0.306335449		
11.316	-0.313354492		
11.32	-0.319702148		
11.324	-0.325500488		
11.328	-0.330871582		
11.332	-0.335876465		
11.336	-0.340454102		
11.34	-0.344543457		
11.344	-0.348022461		
11.348	-0.350708008		
11.352	-0.353027344		
11.356	-0.355224609		
11.36	-0.357421875		
11.364	-0.359558105		
11.368	-0.361328125		
11.372	-0.362792969		
11.376	-0.363952637		
11.38	-0.364929199		
11.384	-0.365966797		
11.388	-0.36706543		
11.392	-0.368225098		
11.396	-0.369140625		
11.4	-0.369628906		
11.404	-0.369934082		
11.408	-0.369995117		
11.412	-0.369934082		
11.416	-0.369934082		
11.42	-0.369934082		
11.424	-0.369812012		
11.428	-0.369445801		
11.432	-0.368896484		
11.436	-0.368408203		
11.44	-0.367797852		
11.444	-0.36706543		
11.448	-0.365966797		
11.452	-0.364685059		
11.456	-0.362976074		
11.46	-0.361022949		
11.464	-0.35925293		
11.468	-0.357666016		
11.472	-0.356506348		
11.476	-0.35546875		
11.48	-0.354309082		
11.484	-0.353149414		
11.488	-0.351867676		
11.492	-0.350402832		
11.496	-0.348815918		
11.5	-0.346923828		
11.504	-0.344909668		
11.508	-0.342651367		
11.512	-0.340209961		
11.516	-0.337768555		
11.52	-0.335388184		
11.524	-0.333068848		
11.528	-0.330871582		
11.532	-0.328857422		
11.536	-0.327148438		
11.54	-0.325561523		
11.544	-0.324157715		
11.548	-0.322692871		
11.552	-0.321228027		
11.556	-0.319824219		
11.56	-0.318359375		
11.564	-0.316955566		
11.568	-0.315307617		
11.572	-0.313232422		
11.576	-0.31072998		
11.58	-0.307983398		
11.584	-0.305419922		
11.588	-0.303405762		
11.592	-0.301818848		
11.596	-0.300354004		
11.6	-0.29876709		
11.604	-0.296813965		
11.608	-0.294433594		
11.612	-0.291748047		
11.616	-0.28918457		
11.62	-0.286987305		
11.624	-0.284973145		
11.628	-0.282958984		
11.632	-0.280883789		
11.636	-0.278625488		
11.64	-0.276184082		
11.644	-0.273864746		
11.648	-0.27166748		
11.652	-0.269836426		
11.656	-0.268310547		
11.66	-0.266845703		
11.664	-0.265441895		
11.668	-0.263916016		
11.672	-0.262390137		
11.676	-0.261230469		
11.68	-0.260375977		
11.684	-0.259765625		
11.688	-0.259460449		
11.692	-0.259033203		
11.696	-0.258056641		
11.7	-0.256469727		
11.704	-0.254394531		
11.708	-0.251953125		
11.712	-0.249450684		
11.716	-0.247314453		
11.72	-0.245605469		
11.724	-0.244384766		
11.728	-0.243408203		
11.732	-0.242431641		
11.736	-0.241271973		
11.74	-0.239685059		
11.744	-0.237731934		
11.748	-0.235534668		
11.752	-0.233398438		
11.756	-0.231506348		
11.76	-0.230102539		
11.764	-0.228759766		
11.768	-0.227416992		
11.772	-0.225769043		
11.776	-0.223693848		
11.78	-0.221435547		
11.784	-0.219238281		
11.788	-0.217468262		
11.792	-0.216308594		
11.796	-0.215576172		
11.8	-0.215087891		
11.804	-0.21472168		
11.808	-0.214294434		
11.812	-0.213745117		
11.816	-0.212890625		
11.82	-0.211853027		
11.824	-0.210998535		
11.828	-0.210266113		
11.832	-0.210205078		
11.836	-0.210510254		
11.84	-0.210754395		
11.844	-0.21081543		
11.848	-0.210632324		
11.852	-0.210205078		
11.856	-0.209716797		
11.86	-0.209228516		
11.864	-0.20880127		
11.868	-0.208129883		
11.872	-0.207275391		
11.876	-0.206054688		
11.88	-0.204650879		
11.884	-0.20324707		
11.888	-0.201843262		
11.892	-0.200439453		
11.896	-0.199035645		
11.9	-0.197753906		
11.904	-0.196472168		
11.908	-0.195129395		
11.912	-0.193786621		
11.916	-0.192565918		
11.92	-0.191467285		
11.924	-0.190612793		
11.928	-0.189880371		
11.932	-0.18927002		
11.936	-0.188720703		
11.94	-0.187988281		
11.944	-0.187316895		
11.948	-0.186584473		
11.952	-0.186035156		
11.956	-0.18560791		
11.96	-0.185241699		
11.964	-0.184875488		
11.968	-0.184265137		
11.972	-0.18347168		
11.976	-0.182495117		
11.98	-0.18145752		
11.984	-0.180236816		
11.988	-0.178771973		
11.992	-0.176696777		
11.996	-0.173339844		
12	-0.167419434		
12.004	-0.156860352		
12.008	-0.139099121		
12.012	-0.112426758		
12.016	-0.076171875		
12.02	-0.031005859		
12.024	0.020874023		
12.028	0.076965332		
12.032	0.134460449		
12.036	0.19152832		
12.04	0.247009277		
12.044	0.300048828		
12.048	0.350280762		
12.052	0.397338867		
12.056	0.441101074		
12.06	0.481506348		
12.064	0.518249512		
12.068	0.551330566		
12.072	0.580749512		
12.076	0.606750488		
12.08	0.629394531		
12.084	0.648803711		
12.088	0.665344238		
12.092	0.679077148		
12.096	0.689941406		
12.1	0.698120117		
12.104	0.703796387		
12.108	0.707275391		
12.112	0.708740234		
12.116	0.708312988		
12.12	0.706298828		
12.124	0.702758789		
12.128	0.697937012		
12.132	0.691894531		
12.136	0.684570313		
12.14	0.676208496		
12.144	0.666931152		
12.148	0.656677246		
12.152	0.645446777		
12.156	0.633361816		
12.16	0.620422363		
12.164	0.606567383		
12.168	0.592102051		
12.172	0.577087402		
12.176	0.561462402		
12.18	0.545166016		
12.184	0.527832031		
12.188	0.509338379		
12.192	0.489807129		
12.196	0.469299316		
12.2	0.447998047		
12.204	0.42578125		
12.208	0.402893066		
12.212	0.37890625		
12.216	0.35357666		
12.22	0.327026367		
12.224	0.298950195		
12.228	0.269592285		
12.232	0.239074707		
12.236	0.207458496		
12.24	0.175231934		
12.244	0.14251709		
12.248	0.109924316		
12.252	0.077758789		
12.256	0.046508789		
12.26	0.016418457		
12.264	-0.012573242		
12.268	-0.040588379		
12.272	-0.067687988		
12.276	-0.093811035		
12.28	-0.118774414		
12.284	-0.142333984		
12.288	-0.164306641		
12.292	-0.184814453		
12.296	-0.203735352		
12.3	-0.221435547		
12.304	-0.237854004		
12.308	-0.253173828		
12.312	-0.26739502		
12.316	-0.280395508		
12.32	-0.292175293		
12.324	-0.303039551		
12.328	-0.313049316		
12.332	-0.322143555		
12.336	-0.330444336		
12.34	-0.337890625		
12.344	-0.344421387		
12.348	-0.349914551		
12.352	-0.354736328		
12.356	-0.359069824		
12.36	-0.362915039		
12.364	-0.366638184		
12.368	-0.370239258		
12.372	-0.373535156		
12.376	-0.376525879		
12.38	-0.379272461		
12.384	-0.381469727		
12.388	-0.383178711		
12.392	-0.384643555		
12.396	-0.386108398		
12.4	-0.387512207		
12.404	-0.388916016		
12.408	-0.390380859		
12.412	-0.391845703		
12.416	-0.393371582		
12.42	-0.394714355		
12.424	-0.395996094		
12.428	-0.397155762		
12.432	-0.3984375		
12.436	-0.399169922		
12.44	-0.399536133		
12.444	-0.399658203		
12.448	-0.399291992		
12.452	-0.398742676		
12.456	-0.398193359		
12.46	-0.397644043		
12.464	-0.397216797		
12.468	-0.396850586		
12.472	-0.396484375		
12.476	-0.395935059		
12.48	-0.395019531		
12.484	-0.393981934		
12.488	-0.392822266		
12.492	-0.391357422		
12.496	-0.389770508		
12.5	-0.388305664		
12.504	-0.38684082		
12.508	-0.385192871		
12.512	-0.383666992		
12.516	-0.381958008		
12.52	-0.380249023		
12.524	-0.378601074		
12.528	-0.37689209		
12.532	-0.375061035		
12.536	-0.373168945		
12.54	-0.37121582		
12.544	-0.36932373		
12.548	-0.367492676		
12.552	-0.365661621		
12.556	-0.363647461		
12.56	-0.361450195		
12.564	-0.359008789		
12.568	-0.356384277		
12.572	-0.354125977		
12.576	-0.352111816		
12.58	-0.350097656		
12.584	-0.348266602		
12.588	-0.346313477		
12.592	-0.344238281		
12.596	-0.342224121		
12.6	-0.340270996		
12.604	-0.338378906		
12.608	-0.336364746		
12.612	-0.334289551		
12.616	-0.33215332		
12.62	-0.33001709		
12.624	-0.32800293		
12.628	-0.326049805		
12.632	-0.32434082		
12.636	-0.322509766		
12.64	-0.320495605		
12.644	-0.31817627		
12.648	-0.315429688		
12.652	-0.312133789		
12.656	-0.30871582		
12.66	-0.305419922		
12.664	-0.302429199		
12.668	-0.299621582		
12.672	-0.297058105		
12.676	-0.294433594		
12.68	-0.291625977		
12.684	-0.288818359		
12.688	-0.286010742		
12.692	-0.28338623		
12.696	-0.281066895		
12.7	-0.278869629		
12.704	-0.276794434		
12.708	-0.274841309		
12.712	-0.272949219		
12.716	-0.271118164		
12.72	-0.269470215		
12.724	-0.268188477		
12.728	-0.267089844		
12.732	-0.265991211		
12.736	-0.264709473		
12.74	-0.263366699		
12.744	-0.261962891		
12.748	-0.260498047		
12.752	-0.259277344		
12.756	-0.258178711		
12.76	-0.257263184		
12.764	-0.256469727		
12.768	-0.255493164		
12.772	-0.254333496		
12.776	-0.252990723		
12.78	-0.251342773		
12.784	-0.249511719		
12.788	-0.247741699		
12.792	-0.246276855		
12.796	-0.245117188		
12.8	-0.24395752		
12.804	-0.242675781		
12.808	-0.241088867		
12.812	-0.239440918		
12.816	-0.237854004		
12.82	-0.23651123		
12.824	-0.235351563		
12.828	-0.234191895		
12.832	-0.232910156		
12.836	-0.231323242		
12.84	-0.229675293		
12.844	-0.228515625		
12.848	-0.227539063		
12.852	-0.226806641		
12.856	-0.226013184		
12.86	-0.225036621		
12.864	-0.223999023		
12.868	-0.222717285		
12.872	-0.221435547		
12.876	-0.220214844		
12.88	-0.219055176		
12.884	-0.217834473		
12.888	-0.216491699		
12.892	-0.215332031		
12.896	-0.214233398		
12.9	-0.213195801		
12.904	-0.212158203		
12.908	-0.211242676		
12.912	-0.210510254		
12.916	-0.210083008		
12.92	-0.209777832		
12.924	-0.209411621		
12.928	-0.20880127		
12.932	-0.208068848		
12.936	-0.207336426		
12.94	-0.206481934		
12.944	-0.205566406		
12.948	-0.204223633		
12.952	-0.202087402		
12.956	-0.198364258		
12.96	-0.191833496		
12.964	-0.180847168		
12.968	-0.162963867		
12.972	-0.136291504		
12.976	-0.100280762		
12.98	-0.055664063		
12.984	-0.004882813		
12.988	0.04888916		
12.992	0.103210449		
12.996	0.156433105		
13	0.207641602		
13.004	0.256713867		
13.008	0.303955078		
13.012	0.349060059		
13.016	0.391479492		
13.02	0.430419922		
13.024	0.465332031		
13.028	0.495788574		
13.032	0.521911621		
13.036	0.544311523		
13.04	0.563476563		
13.044	0.58001709		
13.048	0.594116211		
13.052	0.605651855		
13.056	0.614318848		
13.06	0.620422363		
13.064	0.623962402		
13.068	0.625244141		
13.072	0.624572754		
13.076	0.622192383		
13.08	0.618041992		
13.084	0.612426758		
13.088	0.605529785		
13.092	0.59753418		
13.096	0.588684082		
13.1	0.579162598		
13.104	0.568786621		
13.108	0.557678223		
13.112	0.545715332		
13.116	0.532775879		
13.12	0.518859863		
13.124	0.503662109		
13.128	0.487548828		
13.132	0.47052002		
13.136	0.452941895		
13.14	0.434692383		
13.144	0.415771484		
13.148	0.396057129		
13.152	0.375		
13.156	0.352539063		
13.16	0.328430176		
13.164	0.302734375		
13.168	0.27545166		
13.172	0.246826172		
13.176	0.217041016		
13.18	0.186645508		
13.184	0.155700684		
13.188	0.124389648		
13.192	0.092529297		
13.196	0.06072998		
13.2	0.02947998		
13.204	-0.000793457		
13.208	-0.029846191		
13.212	-0.057495117		
13.216	-0.083618164		
13.22	-0.108337402		
13.224	-0.131835938		
13.228	-0.153991699		
13.232	-0.174621582		
13.236	-0.193847656		
13.24	-0.211853027		
13.244	-0.228515625		
13.248	-0.243591309		
13.252	-0.257141113		
13.256	-0.269470215		
13.26	-0.280700684		
13.264	-0.29083252		
13.268	-0.299926758		
13.272	-0.308166504		
13.276	-0.315551758		
13.28	-0.322265625		
13.284	-0.328552246		
13.288	-0.334533691		
13.292	-0.340087891		
13.296	-0.344909668		
13.3	-0.348937988		
13.304	-0.352355957		
13.308	-0.355224609		
13.312	-0.358093262		
13.316	-0.36114502		
13.32	-0.364379883		
13.324	-0.367553711		
13.328	-0.370361328		
13.332	-0.372619629		
13.336	-0.374328613		
13.34	-0.375610352		
13.344	-0.376953125		
13.348	-0.378295898		
13.352	-0.379699707		
13.356	-0.381164551		
13.36	-0.38269043		
13.364	-0.384033203		
13.368	-0.384887695		
13.372	-0.385314941		
13.376	-0.385070801		
13.38	-0.384216309		
13.384	-0.382995605		
13.388	-0.381652832		
13.392	-0.380554199		
13.396	-0.379577637		
13.4	-0.37878418		
13.404	-0.377990723		
13.408	-0.377258301		
13.412	-0.376586914		
13.416	-0.375610352		
13.42	-0.374389648		
13.424	-0.37286377		
13.428	-0.37097168		
13.432	-0.368774414		
13.436	-0.366455078		
13.44	-0.364318848		
13.444	-0.362609863		
13.448	-0.36114502		
13.452	-0.359680176		
13.456	-0.357971191		
13.46	-0.355834961		
13.464	-0.353210449		
13.468	-0.350524902		
13.472	-0.348205566		
13.476	-0.346313477		
13.48	-0.344848633		
13.484	-0.34362793		
13.488	-0.342285156		
13.492	-0.340637207		
13.496	-0.338745117		
13.5	-0.336730957		
13.504	-0.334899902		
13.508	-0.333190918		
13.512	-0.331848145		
13.516	-0.330688477		
13.52	-0.329833984		
13.524	-0.329040527		
13.528	-0.327941895		
13.532	-0.326660156		
13.536	-0.324890137		
13.54	-0.322753906		
13.544	-0.320556641		
13.548	-0.318359375		
13.552	-0.31652832		
13.556	-0.315002441		
13.56	-0.313537598		
13.564	-0.312255859		
13.568	-0.310668945		
13.572	-0.309082031		
13.576	-0.307434082		
13.58	-0.305664063		
13.584	-0.303833008		
13.588	-0.301940918		
13.592	-0.299987793		
13.596	-0.297912598		
13.6	-0.295715332		
13.604	-0.293579102		
13.608	-0.291503906		
13.612	-0.289672852		
13.616	-0.288024902		
13.62	-0.286560059		
13.624	-0.285217285		
13.628	-0.283569336		
13.632	-0.281799316		
13.636	-0.279846191		
13.64	-0.278015137		
13.644	-0.276123047		
13.648	-0.274536133		
13.652	-0.273193359		
13.656	-0.271728516		
13.66	-0.270263672		
13.664	-0.268615723		
13.668	-0.266967773		
13.672	-0.265441895		
13.676	-0.263977051		
13.68	-0.262817383		
13.684	-0.261779785		
13.688	-0.260437012		
13.692	-0.258911133		
13.696	-0.256958008		
13.7	-0.254882813		
13.704	-0.252868652		
13.708	-0.251037598		
13.712	-0.249389648		
13.716	-0.247924805		
13.72	-0.246582031		
13.724	-0.245422363		
13.728	-0.244262695		
13.732	-0.243347168		
13.736	-0.242553711		
13.74	-0.241699219		
13.744	-0.240905762		
13.748	-0.24005127		
13.752	-0.239074707		
13.756	-0.237915039		
13.76	-0.23638916		
13.764	-0.234558105		
13.768	-0.232421875		
13.772	-0.23046875		
13.776	-0.228759766		
13.78	-0.227539063		
13.784	-0.226806641		
13.788	-0.226074219		
13.792	-0.225158691		
13.796	-0.223876953		
13.8	-0.222290039		
13.804	-0.220458984		
13.808	-0.21862793		
13.812	-0.217041016		
13.816	-0.215576172		
13.82	-0.214233398		
13.824	-0.21307373		
13.828	-0.211914063		
13.832	-0.210876465		
13.836	-0.209777832		
13.84	-0.208679199		
13.844	-0.207641602		
13.848	-0.206604004		
13.852	-0.205749512		
13.856	-0.204956055		
13.86	-0.204284668		
13.864	-0.203552246		
13.868	-0.202636719		
13.872	-0.201538086		
13.876	-0.200439453		
13.88	-0.199462891		
13.884	-0.198730469		
13.888	-0.197937012		
13.892	-0.197265625		
13.896	-0.196533203		
13.9	-0.195678711		
13.904	-0.194824219		
13.908	-0.194213867		
13.912	-0.193725586		
13.916	-0.193054199		
13.92	-0.192260742		
13.924	-0.190795898		
13.928	-0.188415527		
13.932	-0.184265137		
13.936	-0.176757813		
13.94	-0.163757324		
13.944	-0.142944336		
13.948	-0.112670898		
13.952	-0.072692871		
13.956	-0.024414063		
13.96	0.029602051		
13.964	0.086914063		
13.968	0.145141602		
13.972	0.202514648		
13.976	0.258178711		
13.98	0.311706543		
13.984	0.362243652		
13.988	0.409545898		
13.992	0.453186035		
13.996	0.493041992		
14	0.529174805		
14.004	0.561401367		
14.008	0.590148926		
14.012	0.61541748		
14.016	0.637451172		
14.02	0.65625		
14.024	0.67199707		
14.028	0.685119629		
14.032	0.695800781		
14.036	0.704345703		
14.04	0.710876465		
14.044	0.715454102		
14.048	0.717956543		
14.052	0.718139648		
14.056	0.716125488		
14.06	0.712219238		
14.064	0.706665039		
14.068	0.699829102		
14.072	0.691833496		
14.076	0.683105469		
14.08	0.673706055		
14.084	0.663757324		
14.088	0.653320313		
14.092	0.64239502		
14.096	0.630615234		
14.1	0.617980957		
14.104	0.604553223		
14.108	0.590270996		
14.112	0.575378418		
14.116	0.560241699		
14.12	0.544555664		
14.124	0.528320313		
14.128	0.511291504		
14.132	0.493469238		
14.136	0.474731445		
14.14	0.45501709		
14.144	0.434082031		
14.148	0.411560059		
14.152	0.387512207		
14.156	0.361999512		
14.16	0.334960938		
14.164	0.306762695		
14.168	0.277587891		
14.172	0.247314453		
14.176	0.215881348		
14.18	0.183837891		
14.184	0.151367188		
14.188	0.119018555		
14.192	0.086853027		
14.196	0.055236816		
14.2	0.024169922		
14.204	-0.006103516		
14.208	-0.035644531		
14.212	-0.064086914		
14.216	-0.091369629		
14.22	-0.117553711		
14.224	-0.142456055		
14.228	-0.165771484		
14.232	-0.187561035		
14.236	-0.207885742		
14.24	-0.226745605		
14.244	-0.244140625		
14.248	-0.260375977		
14.252	-0.27532959		
14.256	-0.288818359		
14.26	-0.30065918		
14.264	-0.311401367		
14.268	-0.320922852		
14.272	-0.329589844		
14.276	-0.337402344		
14.28	-0.344543457		
14.284	-0.351013184		
14.288	-0.356811523		
14.292	-0.362060547		
14.296	-0.366821289		
14.3	-0.371337891		
14.304	-0.375671387		
14.308	-0.379882813		
14.312	-0.384155273		
14.316	-0.388244629		
14.32	-0.392089844		
14.324	-0.395690918		
14.328	-0.398864746		
14.332	-0.401489258		
14.336	-0.403625488		
14.34	-0.405334473		
14.344	-0.406799316		
14.348	-0.40814209		
14.352	-0.409545898		
14.356	-0.411071777		
14.36	-0.412597656		
14.364	-0.414123535		
14.368	-0.415527344		
14.372	-0.416748047		
14.376	-0.417785645		
14.38	-0.418579102		
14.384	-0.419189453		
14.388	-0.419616699		
14.392	-0.420043945		
14.396	-0.420410156		
14.4	-0.420898438		
14.404	-0.421203613		
14.408	-0.421264648		
14.412	-0.421020508		
14.416	-0.420471191		
14.42	-0.419616699		
14.424	-0.418395996		
14.428	-0.416992188		
14.432	-0.415466309		
14.436	-0.413818359		
14.44	-0.41204834		
14.444	-0.41027832		
14.448	-0.40838623		
14.452	-0.406494141		
14.456	-0.40447998		
14.46	-0.402404785		
14.464	-0.40032959		
14.468	-0.398071289		
14.472	-0.395812988		
14.476	-0.393371582		
14.48	-0.390869141		
14.484	-0.38848877		
14.488	-0.386108398		
14.492	-0.383850098		
14.496	-0.381408691		
14.5	-0.37890625		
14.504	-0.376403809		
14.508	-0.373840332		
14.512	-0.371276855		
14.516	-0.368835449		
14.52	-0.366516113		
14.524	-0.364379883		
14.528	-0.362365723		
14.532	-0.360595703		
14.536	-0.358825684		
14.54	-0.356933594		
14.544	-0.355041504		
14.548	-0.352905273		
14.552	-0.350524902		
14.556	-0.348144531		
14.56	-0.34576416		
14.564	-0.343261719		
14.568	-0.340881348		
14.572	-0.338562012		
14.576	-0.33605957		
14.58	-0.333496094		
14.584	-0.330871582		
14.588	-0.328308105		
14.592	-0.32623291		
14.596	-0.324584961		
14.6	-0.323303223		
14.604	-0.321960449		
14.608	-0.320251465		
14.612	-0.318054199		
14.616	-0.315368652		
14.62	-0.31262207		
14.624	-0.310119629		
14.628	-0.308288574		
14.632	-0.307434082		
14.636	-0.307495117		
14.64	-0.308105469		
14.644	-0.309082031		
14.648	-0.309997559		
14.652	-0.31048584		
14.656	-0.310241699		
14.66	-0.309265137		
14.664	-0.307556152		
14.668	-0.305114746		
14.672	-0.302185059		
14.676	-0.29901123		
14.68	-0.295776367		
14.684	-0.292724609		
14.688	-0.289855957		
14.692	-0.28704834		
14.696	-0.284362793		
14.7	-0.281860352		
14.704	-0.27947998		
14.708	-0.277099609		
14.712	-0.274841309		
14.716	-0.272644043		
14.72	-0.270751953		
14.724	-0.269104004		
14.728	-0.26751709		
14.732	-0.266052246		
14.736	-0.264343262		
14.74	-0.262390137		
14.744	-0.260192871		
14.748	-0.258056641		
14.752	-0.256225586		
14.756	-0.254760742		
14.76	-0.253601074		
14.764	-0.252441406		
14.768	-0.251403809		
14.772	-0.250427246		
14.776	-0.249206543		
14.78	-0.247680664		
14.784	-0.245849609		
14.788	-0.243591309		
14.792	-0.241210938		
14.796	-0.238830566		
14.8	-0.237182617		
14.804	-0.23626709		
14.808	-0.235839844		
14.812	-0.235717773		
14.816	-0.235595703		
14.82	-0.235290527		
14.824	-0.234741211		
14.828	-0.234069824		
14.832	-0.233398438		
14.836	-0.232788086		
14.84	-0.232055664		
14.844	-0.230957031		
14.848	-0.229797363		
14.852	-0.228759766		
14.856	-0.227783203		
14.86	-0.227050781		
14.864	-0.226501465		
14.868	-0.225830078		
14.872	-0.224853516		
14.876	-0.223144531		
14.88	-0.220336914		
14.884	-0.215698242		
14.888	-0.208068848		
14.892	-0.195495605		
14.896	-0.175598145		
14.9	-0.146728516		
14.904	-0.108337402		
14.908	-0.061462402		
14.912	-0.008422852		
14.916	0.048156738		
14.92	0.105712891		
14.924	0.162658691		
14.928	0.218200684		
14.932	0.271484375		
14.936	0.32208252		
14.94	0.369506836		
14.944	0.413269043		
14.948	0.453063965		
14.952	0.488769531		
14.956	0.520507813		
14.96	0.548095703		
14.964	0.571838379		
14.968	0.592041016		
14.972	0.608764648		
14.976	0.622314453		
14.98	0.63293457		
14.984	0.640869141		
14.988	0.64642334		
14.992	0.649841309		
14.996	0.651306152		
15	0.651123047		
15.004	0.649353027		
15.008	0.646057129		
15.012	0.640991211		
15.016	0.634399414		
15.02	0.626220703		
15.024	0.616577148		
15.028	0.60559082		
15.032	0.593688965		
15.036	0.581237793		
15.04	0.568054199		
15.044	0.554504395		
15.048	0.540161133		
15.052	0.525024414		
15.056	0.509094238		
15.06	0.492126465		
15.064	0.473999023		
15.068	0.45489502		
15.072	0.434692383		
15.076	0.413452148		
15.08	0.391113281		
15.084	0.367736816		
15.088	0.343200684		
15.092	0.317382813		
15.096	0.290405273		
15.1	0.262023926		
15.104	0.23248291		
15.108	0.202148438		
15.112	0.171203613		
15.116	0.139953613		
15.12	0.108398438		
15.124	0.077026367		
15.128	0.046020508		
15.132	0.015441895		
15.136	-0.014221191		
15.14	-0.04284668		
15.144	-0.07019043		
15.148	-0.096069336		
15.152	-0.120605469		
15.156	-0.143615723		
15.16	-0.165161133		
15.164	-0.185119629		
15.168	-0.203491211		
15.172	-0.220214844		
15.176	-0.235412598		
15.18	-0.249267578		
15.184	-0.261901855		
15.188	-0.273620605		
15.192	-0.284667969		
15.196	-0.29486084		
15.2	-0.304138184		
15.204	-0.312316895		
15.208	-0.319519043		
15.212	-0.326049805		
15.216	-0.332092285		
15.22	-0.337890625		
15.224	-0.343322754		
15.228	-0.348266602		
15.232	-0.352478027		
15.236	-0.355895996		
15.24	-0.358703613		
15.244	-0.36138916		
15.248	-0.364196777		
15.252	-0.366882324		
15.256	-0.369445801		
15.26	-0.371826172		
15.264	-0.373962402		
15.268	-0.375793457		
15.272	-0.377563477		
15.276	-0.379089355		
15.28	-0.380432129		
15.284	-0.381835938		
15.288	-0.383300781		
15.292	-0.38482666		
15.296	-0.386413574		
15.3	-0.387878418		
15.304	-0.389038086		
15.308	-0.389648438		
15.312	-0.390014648		
15.316	-0.390258789		
15.32	-0.390563965		
15.324	-0.390869141		
15.328	-0.391174316		
15.332	-0.391174316		
15.336	-0.390563965		
15.34	-0.389648438		
15.344	-0.388305664		
15.348	-0.38671875		
15.352	-0.385253906		
15.356	-0.383728027		
15.36	-0.382141113		
15.364	-0.380493164		
15.368	-0.378845215		
15.372	-0.377075195		
15.376	-0.37512207		
15.38	-0.37310791		
15.384	-0.37097168		
15.388	-0.368713379		
15.392	-0.366516113		
15.396	-0.364379883		
15.4	-0.362548828		
15.404	-0.360778809		
15.408	-0.358947754		
15.412	-0.357177734		
15.416	-0.355407715		
15.42	-0.353759766		
15.424	-0.352050781		
15.428	-0.350402832		
15.432	-0.348693848		
15.436	-0.346862793		
15.44	-0.344848633		
15.444	-0.342834473		
15.448	-0.340637207		
15.452	-0.338378906		
15.456	-0.336181641		
15.46	-0.33392334		
15.464	-0.331726074		
15.468	-0.329650879		
15.472	-0.327636719		
15.476	-0.325622559		
15.48	-0.323608398		
15.484	-0.321411133		
15.488	-0.319213867		
15.492	-0.317016602		
15.496	-0.314880371		
15.5	-0.313171387		
15.504	-0.311645508		
15.508	-0.310302734		
15.512	-0.308776855		
15.516	-0.306884766		
15.52	-0.304931641		
15.524	-0.302978516		
15.528	-0.301025391		
15.532	-0.299438477		
15.536	-0.298095703		
15.54	-0.296875		
15.544	-0.295715332		
15.548	-0.294677734		
15.552	-0.293518066		
15.556	-0.292236328		
15.56	-0.290893555		
15.564	-0.289306641		
15.568	-0.287658691		
15.572	-0.286010742		
15.576	-0.284240723		
15.58	-0.282592773		
15.584	-0.281005859		
15.588	-0.27947998		
15.592	-0.278015137		
15.596	-0.276672363		
15.6	-0.27532959		
15.604	-0.274047852		
15.608	-0.272766113		
15.612	-0.271362305		
15.616	-0.269775391		
15.62	-0.267944336		
15.624	-0.265686035		
15.628	-0.263305664		
15.632	-0.261230469		
15.636	-0.259460449		
15.64	-0.257995605		
15.644	-0.256713867		
15.648	-0.255493164		
15.652	-0.254089355		
15.656	-0.252746582		
15.66	-0.251525879		
15.664	-0.250366211		
15.668	-0.249389648		
15.672	-0.248291016		
15.676	-0.247131348		
15.68	-0.245727539		
15.684	-0.244018555		
15.688	-0.242004395		
15.692	-0.239868164		
15.696	-0.237548828		
15.7	-0.235229492		
15.704	-0.233276367		
15.708	-0.231689453		
15.712	-0.23059082		
15.716	-0.229858398		
15.72	-0.229370117		
15.724	-0.229003906		
15.728	-0.22857666		
15.732	-0.227966309		
15.736	-0.227233887		
15.74	-0.226257324		
15.744	-0.225036621		
15.748	-0.223571777		
15.752	-0.221801758		
15.756	-0.219787598		
15.76	-0.217651367		
15.764	-0.215454102		
15.768	-0.213500977		
15.772	-0.211730957		
15.776	-0.210144043		
15.78	-0.208679199		
15.784	-0.207275391		
15.788	-0.206115723		
15.792	-0.204772949		
15.796	-0.203308105		
15.8	-0.201721191		
15.804	-0.199829102		
15.808	-0.197937012		
15.812	-0.196228027		
15.816	-0.194702148		
15.82	-0.19342041		
15.824	-0.192138672		
15.828	-0.190795898		
15.832	-0.189758301		
15.836	-0.188903809		
15.84	-0.188232422		
15.844	-0.187438965		
15.848	-0.186218262		
15.852	-0.184143066		
15.856	-0.180236816		
15.86	-0.173278809		
15.864	-0.160949707		
15.868	-0.140686035		
15.872	-0.110473633		
15.876	-0.070068359		
15.88	-0.020874023		
15.884	0.034545898		
15.888	0.092956543		
15.892	0.151855469		
15.896	0.209777832		
15.9	0.265991211		
15.904	0.320129395		
15.908	0.371643066		
15.912	0.41998291		
15.916	0.46484375		
15.92	0.505737305		
15.924	0.542663574		
15.928	0.575805664		
15.932	0.605407715		
15.936	0.631652832		
15.94	0.654541016		
15.944	0.674438477		
15.948	0.69152832		
15.952	0.705566406		
15.956	0.71685791		
15.96	0.725585938		
15.964	0.731750488		
15.968	0.735534668		
15.972	0.737182617		
15.976	0.737060547		
15.98	0.735290527		
15.984	0.732055664		
15.988	0.727661133		
15.992	0.722167969		
15.996	0.715576172		
16	0.707885742		
16.004	0.69921875		
16.008	0.689697266		
16.012	0.679321289		
16.016	0.668273926		
16.02	0.656616211		
16.024	0.64440918		
16.028	0.631530762		
16.032	0.617980957		
16.036	0.60369873		
16.04	0.588562012		
16.044	0.572387695		
16.048	0.555175781		
16.052	0.53717041		
16.056	0.518371582		
16.06	0.498840332		
16.064	0.47869873		
16.068	0.457763672		
16.072	0.435546875		
16.076	0.411865234		
16.08	0.386657715		
16.084	0.360046387		
16.088	0.332092285		
16.092	0.302856445		
16.096	0.272583008		
16.1	0.241333008		
16.104	0.209533691		
16.108	0.177490234		
16.112	0.145690918		
16.116	0.114562988		
16.12	0.084106445		
16.124	0.054443359		
16.128	0.025634766		
16.132	-0.00213623		
16.136	-0.02911377		
16.14	-0.055175781		
16.144	-0.08026123		
16.148	-0.104431152		
16.152	-0.127380371		
16.156	-0.148986816		
16.16	-0.169128418		
16.164	-0.18762207		
16.168	-0.204528809		
16.172	-0.220092773		
16.176	-0.234375		
16.18	-0.247009277		
16.184	-0.257995605		
16.188	-0.267578125		
16.192	-0.275817871		
16.196	-0.28302002		
16.2	-0.289794922		
16.204	-0.296325684		
16.208	-0.302856445		
16.212	-0.309204102		
16.216	-0.315246582		
16.22	-0.320739746		
16.224	-0.325683594		
16.228	-0.33013916		
16.232	-0.334350586		
16.236	-0.338500977		
16.24	-0.342590332		
16.244	-0.346618652		
16.248	-0.350463867		
16.252	-0.354309082		
16.256	-0.358154297		
16.26	-0.362182617		
16.264	-0.366333008		
16.268	-0.370666504		
16.272	-0.374938965		
16.276	-0.379150391		
16.28	-0.383483887		
16.284	-0.387817383		
16.288	-0.392028809		
16.292	-0.396240234		
16.296	-0.400268555		
16.3	-0.404174805		
16.304	-0.407714844		
16.308	-0.411132813		
16.312	-0.41418457		
16.316	-0.416625977		
16.32	-0.418518066		
16.324	-0.420043945		
16.328	-0.421325684		
16.332	-0.422485352		
16.336	-0.423461914		
16.34	-0.424377441		
16.344	-0.424987793		
16.348	-0.425170898		
16.352	-0.424865723		
16.356	-0.424316406		
16.36	-0.423706055		
16.364	-0.423095703		
16.368	-0.422546387		
16.372	-0.42199707		
16.376	-0.421447754		
16.38	-0.420776367		
16.384	-0.41986084		
16.388	-0.418823242		
16.392	-0.417724609		
16.396	-0.416503906		
16.4	-0.415344238		
16.404	-0.41418457		
16.408	-0.412963867		
16.412	-0.411560059		
16.416	-0.410095215		
16.42	-0.408569336		
16.424	-0.407043457		
16.428	-0.405578613		
16.432	-0.403991699		
16.436	-0.402099609		
16.44	-0.399719238		
16.444	-0.397094727		
16.448	-0.39440918		
16.452	-0.391845703		
16.456	-0.389648438		
16.46	-0.387695313		
16.464	-0.385864258		
16.468	-0.384277344		
16.472	-0.38293457		
16.476	-0.381713867		
16.48	-0.380554199		
16.484	-0.379333496		
16.488	-0.378051758		
16.492	-0.376525879		
16.496	-0.374816895		
16.5	-0.37298584		
16.504	-0.37097168		
16.508	-0.368652344		
16.512	-0.366271973		
16.516	-0.363891602		
16.52	-0.361694336		
16.524	-0.359436035		
16.528	-0.357055664		
16.532	-0.354492188		
16.536	-0.351867676		
16.54	-0.349365234		
16.544	-0.346801758		
16.548	-0.344482422		
16.552	-0.342224121		
16.556	-0.339904785		
16.56	-0.337585449		
16.564	-0.335144043		
16.568	-0.332702637		
16.572	-0.330200195		
16.576	-0.327941895		
16.58	-0.32611084		
16.584	-0.324584961		
16.588	-0.323425293		
16.592	-0.32208252		
16.596	-0.320251465		
16.6	-0.317687988		
16.604	-0.31427002		
16.608	-0.310424805		
16.612	-0.30657959		
16.616	-0.303100586		
16.62	-0.300231934		
16.624	-0.297912598		
16.628	-0.295715332		
16.632	-0.293334961		
16.636	-0.290466309		
16.64	-0.28729248		
16.644	-0.284179688		
16.648	-0.281494141		
16.652	-0.279296875		
16.656	-0.277404785		
16.66	-0.275634766		
16.664	-0.2734375		
16.668	-0.271057129		
16.672	-0.268615723		
16.676	-0.266296387		
16.68	-0.264343262		
16.684	-0.262390137		
16.688	-0.260620117		
16.692	-0.258789063		
16.696	-0.257080078		
16.7	-0.255554199		
16.704	-0.254272461		
16.708	-0.253295898		
16.712	-0.252502441		
16.716	-0.251647949		
16.72	-0.250793457		
16.724	-0.249633789		
16.728	-0.248046875		
16.732	-0.24609375		
16.736	-0.24395752		
16.74	-0.241821289		
16.744	-0.239990234		
16.748	-0.238464355		
16.752	-0.237182617		
16.756	-0.235961914		
16.76	-0.234741211		
16.764	-0.233337402		
16.768	-0.231872559		
16.772	-0.23059082		
16.776	-0.229431152		
16.78	-0.228271484		
16.784	-0.226867676		
16.788	-0.225097656		
16.792	-0.223022461		
16.796	-0.22052002		
16.8	-0.217651367		
16.804	-0.214111328		
16.808	-0.20916748		
16.812	-0.201049805		
16.816	-0.18737793		
16.82	-0.165649414		
16.824	-0.134155273		
16.828	-0.092712402		
16.832	-0.042541504		
16.836	0.013671875		
16.84	0.073364258		
16.844	0.133972168		
16.848	0.19354248		
16.852	0.251220703		
16.856	0.306274414		
16.86	0.357971191		
16.864	0.406066895		
16.868	0.450195313		
16.872	0.49029541		
16.876	0.526367188		
16.88	0.55859375		
16.884	0.587463379		
16.888	0.613220215		
16.892	0.635742188		
16.896	0.655029297		
16.9	0.671020508		
16.904	0.68359375		
16.908	0.692932129		
16.912	0.699401855		
16.916	0.703613281		
16.92	0.705871582		
16.924	0.706542969		
16.928	0.705444336		
16.932	0.702758789		
16.936	0.698669434		
16.94	0.692993164		
16.944	0.686218262		
16.948	0.678344727		
16.952	0.669433594		
16.956	0.659545898		
16.96	0.648742676		
16.964	0.636962891		
16.968	0.624450684		
16.972	0.611450195		
16.976	0.597839355		
16.98	0.583312988		
16.984	0.568115234		
16.988	0.552368164		
16.992	0.536132813		
16.996	0.519592285		
17	0.502624512		
17.004	0.485046387		
17.008	0.466430664		
17.012	0.446289063		
17.016	0.424682617		
17.02	0.401611328		
17.024	0.377380371		
17.028	0.351989746		
17.032	0.325561523		
17.036	0.297851563		
17.04	0.268920898		
17.044	0.239013672		
17.048	0.208190918		
17.052	0.176879883		
17.056	0.145385742		
17.06	0.113830566		
17.064	0.082397461		
17.068	0.051086426		
17.072	0.020324707		
17.076	-0.009399414		
17.08	-0.038024902		
17.084	-0.065429688		
17.088	-0.09173584		
17.092	-0.116882324		
17.096	-0.14074707		
17.1	-0.163330078		
17.104	-0.184326172		
17.108	-0.203796387		
17.112	-0.221801758		
17.116	-0.238708496		
17.12	-0.254394531		
17.124	-0.268798828		
17.128	-0.281616211		
17.132	-0.292785645		
17.136	-0.302307129		
17.14	-0.310546875		
17.144	-0.318115234		
17.148	-0.325378418		
17.152	-0.332336426		
17.156	-0.338928223		
17.16	-0.345031738		
17.164	-0.350463867		
17.168	-0.355285645		
17.172	-0.359619141		
17.176	-0.363830566		
17.18	-0.367980957		
17.184	-0.371765137		
17.188	-0.375244141		
17.192	-0.378234863		
17.196	-0.38092041		
17.2	-0.383483887		
17.204	-0.386169434		
17.208	-0.389099121		
17.212	-0.392272949		
17.216	-0.395507813		
17.22	-0.398742676		
17.224	-0.401672363		
17.228	-0.40435791		
17.232	-0.406982422		
17.236	-0.409362793		
17.24	-0.411743164		
17.244	-0.4140625		
17.248	-0.416259766		
17.252	-0.418334961		
17.256	-0.420043945		
17.26	-0.421508789		
17.264	-0.422729492		
17.268	-0.42364502		
17.272	-0.424377441		
17.276	-0.424743652		
17.28	-0.424682617		
17.284	-0.424133301		
17.288	-0.423217773		
17.292	-0.42175293		
17.296	-0.42010498		
17.3	-0.418395996		
17.304	-0.416687012		
17.308	-0.415161133		
17.312	-0.413757324		
17.316	-0.412414551		
17.32	-0.411254883		
17.324	-0.409912109		
17.328	-0.408325195		
17.332	-0.406677246		
17.336	-0.404846191		
17.34	-0.402832031		
17.344	-0.400634766		
17.348	-0.3984375		
17.352	-0.396118164		
17.356	-0.393920898		
17.36	-0.391967773		
17.364	-0.390197754		
17.368	-0.388549805		
17.372	-0.387023926		
17.376	-0.385375977		
17.38	-0.383239746		
17.384	-0.38067627		
17.388	-0.378112793		
17.392	-0.375549316		
17.396	-0.373046875		
17.4	-0.370788574		
17.404	-0.368591309		
17.408	-0.366210938		
17.412	-0.363708496		
17.416	-0.361022949		
17.42	-0.358398438		
17.424	-0.356018066		
17.428	-0.353881836		
17.432	-0.351745605		
17.436	-0.34942627		
17.44	-0.347106934		
17.444	-0.344482422		
17.448	-0.341796875		
17.452	-0.339294434		
17.456	-0.337097168		
17.46	-0.335205078		
17.464	-0.333557129		
17.468	-0.33190918		
17.472	-0.329956055		
17.476	-0.327880859		
17.48	-0.325683594		
17.484	-0.323425293		
17.488	-0.321472168		
17.492	-0.319885254		
17.496	-0.318603516		
17.5	-0.317382813		
17.504	-0.316040039		
17.508	-0.31439209		
17.512	-0.312316895		
17.516	-0.309997559		
17.52	-0.307739258		
17.524	-0.305603027		
17.528	-0.303833008		
17.532	-0.302368164		
17.536	-0.301025391		
17.54	-0.299743652		
17.544	-0.298278809		
17.548	-0.29675293		
17.552	-0.29486084		
17.556	-0.292663574		
17.56	-0.290161133		
17.564	-0.287475586		
17.568	-0.284973145		
17.572	-0.282653809		
17.576	-0.280883789		
17.58	-0.279724121		
17.584	-0.278747559		
17.588	-0.277648926		
17.592	-0.276306152		
17.596	-0.274658203		
17.6	-0.272705078		
17.604	-0.270568848		
17.608	-0.268615723		
17.612	-0.266784668		
17.616	-0.265136719		
17.62	-0.26361084		
17.624	-0.262207031		
17.628	-0.260925293		
17.632	-0.25958252		
17.636	-0.258239746		
17.64	-0.256896973		
17.644	-0.255615234		
17.648	-0.254455566		
17.652	-0.253234863		
17.656	-0.25189209		
17.66	-0.250610352		
17.664	-0.249267578		
17.668	-0.24798584		
17.672	-0.246643066		
17.676	-0.245239258		
17.68	-0.243774414		
17.684	-0.242492676		
17.688	-0.241088867		
17.692	-0.239807129		
17.696	-0.238708496		
17.7	-0.237731934		
17.704	-0.23651123		
17.708	-0.235046387		
17.712	-0.233459473		
17.716	-0.231689453		
17.72	-0.229919434		
17.724	-0.228027344		
17.728	-0.226074219		
17.732	-0.224121094		
17.736	-0.222229004		
17.74	-0.220336914		
17.744	-0.218566895		
17.748	-0.216918945		
17.752	-0.215209961		
17.756	-0.213378906		
17.76	-0.211669922		
17.764	-0.210083008		
17.768	-0.20880127		
17.772	-0.207763672		
17.776	-0.206970215		
17.78	-0.206237793		
17.784	-0.205200195		
17.788	-0.203674316		
17.792	-0.201049805		
17.796	-0.196044922		
17.8	-0.186706543		
17.804	-0.170288086		
17.808	-0.14453125		
17.812	-0.108215332		
17.816	-0.061889648		
17.82	-0.007568359		
17.824	0.051879883		
17.828	0.113464355		
17.832	0.175048828		
17.836	0.234985352		
17.84	0.292419434		
17.844	0.346801758		
17.848	0.397399902		
17.852	0.444030762		
17.856	0.486633301		
17.86	0.525146484		
17.864	0.559997559		
17.868	0.591430664		
17.872	0.619628906		
17.876	0.644470215		
17.88	0.66607666		
17.884	0.684387207		
17.888	0.69934082		
17.892	0.711120605		
17.896	0.719848633		
17.9	0.725402832		
17.904	0.72845459		
17.908	0.729309082		
17.912	0.728210449		
17.916	0.725769043		
17.92	0.722045898		
17.924	0.71697998		
17.928	0.710449219		
17.932	0.702392578		
17.936	0.693054199		
17.94	0.682678223		
17.944	0.671691895		
17.948	0.660095215		
17.952	0.647705078		
17.956	0.634338379		
17.96	0.620117188		
17.964	0.604980469		
17.968	0.589294434		
17.972	0.573303223		
17.976	0.556884766		
17.98	0.539978027		
17.984	0.522155762		
17.988	0.503112793		
17.992	0.482910156		
17.996	0.461669922		
18	0.439331055		
18.004	0.41583252		
18.008	0.391296387		
18.012	0.36541748		
18.016	0.338134766		
18.02	0.309509277		
18.024	0.279663086		
18.028	0.248535156		
18.032	0.216430664		
18.036	0.183776855		
18.04	0.150695801		
18.044	0.117675781		
18.048	0.084838867		
18.052	0.052429199		
18.056	0.020507813		
18.06	-0.010742188		
18.064	-0.041015625		
18.068	-0.069946289		
18.072	-0.097351074		
18.076	-0.122924805		
18.08	-0.146789551		
18.084	-0.169067383		
18.088	-0.189941406		
18.092	-0.209228516		
18.096	-0.227111816		
18.1	-0.243591309		
18.104	-0.258850098		
18.108	-0.272827148		
18.112	-0.285522461		
18.116	-0.296936035		
18.12	-0.307312012		
18.124	-0.316650391		
18.128	-0.324890137		
18.132	-0.332397461		
18.136	-0.339172363		
18.14	-0.345275879		
18.144	-0.350708008		
18.148	-0.355712891		
18.152	-0.360534668		
18.156	-0.36517334		
18.16	-0.369750977		
18.164	-0.374145508		
18.168	-0.378356934		
18.172	-0.382263184		
18.176	-0.385864258		
18.18	-0.389099121		
18.184	-0.392089844		
18.188	-0.394897461		
18.192	-0.397338867		
18.196	-0.399536133		
18.2	-0.401550293		
18.204	-0.403503418		
18.208	-0.405334473		
18.212	-0.407287598		
18.216	-0.409362793		
18.22	-0.411437988		
18.224	-0.413391113		
18.228	-0.414978027		
18.232	-0.41607666		
18.236	-0.416870117		
18.24	-0.417236328		
18.244	-0.417419434		
18.248	-0.417907715		
18.252	-0.418701172		
18.256	-0.419433594		
18.26	-0.42010498		
18.264	-0.420288086		
18.268	-0.419921875		
18.272	-0.418945313		
18.276	-0.417663574		
18.28	-0.416442871		
18.284	-0.415405273		
18.288	-0.414672852		
18.292	-0.414001465		
18.296	-0.413146973		
18.3	-0.411987305		
18.304	-0.410461426		
18.308	-0.408630371		
18.312	-0.406616211		
18.316	-0.404541016		
18.32	-0.40222168		
18.324	-0.399719238		
18.328	-0.397155762		
18.332	-0.394470215		
18.336	-0.391784668		
18.34	-0.389282227		
18.344	-0.386901855		
18.348	-0.384765625		
18.352	-0.383056641		
18.356	-0.381713867		
18.36	-0.38079834		
18.364	-0.379943848		
18.368	-0.37878418		
18.372	-0.37689209		
18.376	-0.374450684		
18.38	-0.371704102		
18.384	-0.36895752		
18.388	-0.366577148		
18.392	-0.364318848		
18.396	-0.362365723		
18.4	-0.360473633		
18.404	-0.358398438		
18.408	-0.356323242		
18.412	-0.353942871		
18.416	-0.35144043		
18.42	-0.348815918		
18.424	-0.346435547		
18.428	-0.344482422		
18.432	-0.342895508		
18.436	-0.341369629		
18.44	-0.339904785		
18.444	-0.338195801		
18.448	-0.335998535		
18.452	-0.333374023		
18.456	-0.330932617		
18.46	-0.328674316		
18.464	-0.326416016		
18.468	-0.32421875		
18.472	-0.321838379		
18.476	-0.319091797		
18.48	-0.315979004		
18.484	-0.312805176		
18.488	-0.309997559		
18.492	-0.307556152		
18.496	-0.305603027		
18.5	-0.303771973		
18.504	-0.301940918		
18.508	-0.300048828		
18.512	-0.298156738		
18.516	-0.296508789		
18.52	-0.295043945		
18.524	-0.293762207		
18.528	-0.292358398		
18.532	-0.290771484		
18.536	-0.289001465		
18.54	-0.287231445		
18.544	-0.28527832		
18.548	-0.28314209		
18.552	-0.280761719		
18.556	-0.278381348		
18.56	-0.276000977		
18.564	-0.273864746		
18.568	-0.272155762		
18.572	-0.270751953		
18.576	-0.26953125		
18.58	-0.268127441		
18.584	-0.266662598		
18.588	-0.265258789		
18.592	-0.26361084		
18.596	-0.262023926		
18.6	-0.260437012		
18.604	-0.258789063		
18.608	-0.257080078		
18.612	-0.255371094		
18.616	-0.253723145		
18.62	-0.25213623		
18.624	-0.250549316		
18.628	-0.248901367		
18.632	-0.247314453		
18.636	-0.24597168		
18.64	-0.244628906		
18.644	-0.243347168		
18.648	-0.242004395		
18.652	-0.240600586		
18.656	-0.239196777		
18.66	-0.237854004		
18.664	-0.23651123		
18.668	-0.235290527		
18.672	-0.234069824		
18.676	-0.232727051		
18.68	-0.231323242		
18.684	-0.229858398		
18.688	-0.22833252		
18.692	-0.22668457		
18.696	-0.225097656		
18.7	-0.223449707		
18.704	-0.221923828		
18.708	-0.220581055		
18.712	-0.219482422		
18.716	-0.218505859		
18.72	-0.217468262		
18.724	-0.216308594		
18.728	-0.215209961		
18.732	-0.214233398		
18.736	-0.213439941		
18.74	-0.212646484		
18.744	-0.211669922		
18.748	-0.210632324		
18.752	-0.208984375		
18.756	-0.206237793		
18.76	-0.201721191		
18.764	-0.194030762		
18.768	-0.181091309		
18.772	-0.160583496		
18.776	-0.131225586		
18.78	-0.092651367		
18.784	-0.045837402		
18.788	0.006896973		
18.792	0.062927246		
18.796	0.119873047		
18.8	0.176086426		
18.804	0.23034668		
18.808	0.282226563		
18.812	0.331298828		
18.816	0.377197266		
18.82	0.419616699		
18.824	0.458312988		
18.828	0.492980957		
18.832	0.523864746		
18.836	0.551025391		
18.84	0.574768066		
18.844	0.595214844		
18.848	0.612365723		
18.852	0.626403809		
18.856	0.637390137		
18.86	0.645629883		
18.864	0.651428223		
18.868	0.655151367		
18.872	0.656982422		
18.876	0.656738281		
18.88	0.654296875		
18.884	0.649780273		
18.888	0.643554688		
18.892	0.635986328		
18.896	0.627441406		
18.9	0.618286133		
18.904	0.608459473		
18.908	0.597900391		
18.912	0.586425781		
18.916	0.573974609		
18.92	0.56072998		
18.924	0.546691895		
18.928	0.531677246		
18.932	0.515686035		
18.936	0.498901367		
18.94	0.481201172		
18.944	0.46282959		
18.948	0.44354248		
18.952	0.423339844		
18.956	0.401611328		
18.96	0.378173828		
18.964	0.352783203		
18.968	0.325622559		
18.972	0.297180176		
18.976	0.26763916		
18.98	0.237487793		
18.984	0.206970215		
18.988	0.17590332		
18.992	0.14453125		
18.996	0.112854004		
19	0.081237793		
19.004	0.049926758		
19.008	0.019348145		
19.012	-0.010131836		
19.016	-0.038513184		
19.02	-0.065551758		
19.024	-0.091064453		
19.028	-0.11529541		
19.032	-0.138061523		
19.036	-0.159729004		
19.04	-0.180175781		
19.044	-0.199157715		
19.048	-0.216674805		
19.052	-0.232543945		
19.056	-0.246582031		
19.06	-0.259155273		
19.064	-0.270629883		
19.068	-0.281188965		
19.072	-0.291015625		
19.076	-0.300170898		
19.08	-0.30859375		
19.084	-0.316162109		
19.088	-0.323181152		
19.092	-0.329406738		
19.096	-0.335021973		
19.1	-0.340026855		
19.104	-0.344543457		
19.108	-0.348571777		
19.112	-0.352111816		
19.116	-0.35534668		
19.12	-0.358459473		
19.124	-0.361572266		
19.128	-0.364685059		
19.132	-0.367736816		
19.136	-0.370666504		
19.14	-0.373413086		
19.144	-0.376037598		
19.148	-0.378356934		
19.152	-0.38067627		
19.156	-0.383056641		
19.16	-0.385498047		
19.164	-0.387817383		
19.168	-0.389892578		
19.172	-0.391784668		
19.176	-0.393493652		
19.18	-0.39465332		
19.184	-0.395446777		
19.188	-0.395996094		
19.192	-0.396118164		
19.196	-0.395935059		
19.2	-0.395324707		
19.204	-0.39440918		
19.208	-0.393493652		
19.212	-0.392456055		
19.216	-0.391662598		
19.22	-0.391174316		
19.224	-0.39074707		
19.228	-0.390258789		
19.232	-0.389465332		
19.236	-0.388427734		
19.24	-0.387268066		
19.244	-0.386230469		
19.248	-0.385253906		
19.252	-0.384277344		
19.256	-0.383117676		
19.26	-0.381469727		
19.264	-0.379455566		
19.268	-0.377319336		
19.272	-0.375		
19.276	-0.37286377		
19.28	-0.370788574		
19.284	-0.368835449		
19.288	-0.36706543		
19.292	-0.36517334		
19.296	-0.363464355		
19.3	-0.361877441		
19.304	-0.360351563		
19.308	-0.358825684		
19.312	-0.357055664		
19.316	-0.354980469		
19.32	-0.352722168		
19.324	-0.350280762		
19.328	-0.347900391		
19.332	-0.34564209		
19.336	-0.343505859		
19.34	-0.341369629		
19.344	-0.338989258		
19.348	-0.336364746		
19.352	-0.333618164		
19.356	-0.330688477		
19.36	-0.327514648		
19.364	-0.324584961		
19.368	-0.322143555		
19.372	-0.319885254		
19.376	-0.317993164		
19.38	-0.31628418		
19.384	-0.314453125		
19.388	-0.312438965		
19.392	-0.31036377		
19.396	-0.30847168		
19.4	-0.30670166		
19.404	-0.304931641		
19.408	-0.303100586		
19.412	-0.300964355		
19.416	-0.298583984		
19.42	-0.296325684		
19.424	-0.294433594		
19.428	-0.293029785		
19.432	-0.291931152		
19.436	-0.29095459		
19.44	-0.289855957		
19.444	-0.288146973		
19.448	-0.286071777		
19.452	-0.283813477		
19.456	-0.281616211		
19.46	-0.279602051		
19.464	-0.277770996		
19.468	-0.276123047		
19.472	-0.274414063		
19.476	-0.272766113		
19.48	-0.271179199		
19.484	-0.269836426		
19.488	-0.268615723		
19.492	-0.267333984		
19.496	-0.266052246		
19.5	-0.264526367		
19.504	-0.262878418		
19.508	-0.261108398		
19.512	-0.259277344		
19.516	-0.257629395		
19.52	-0.255859375		
19.524	-0.25402832		
19.528	-0.252197266		
19.532	-0.250488281		
19.536	-0.248779297		
19.54	-0.247375488		
19.544	-0.24621582		
19.548	-0.245361328		
19.552	-0.244567871		
19.556	-0.243652344		
19.56	-0.242370605		
19.564	-0.240844727		
19.568	-0.239013672		
19.572	-0.237060547		
19.576	-0.235229492		
19.58	-0.233520508		
19.584	-0.231933594		
19.588	-0.230407715		
19.592	-0.229003906		
19.596	-0.227539063		
19.6	-0.226135254		
19.604	-0.224731445		
19.608	-0.223571777		
19.612	-0.222473145		
19.616	-0.221557617		
19.62	-0.22064209		
19.624	-0.219848633		
19.628	-0.219238281		
19.632	-0.218505859		
19.636	-0.217895508		
19.64	-0.217407227		
19.644	-0.21661377		
19.648	-0.215454102		
19.652	-0.214111328		
19.656	-0.212768555		
19.66	-0.211486816		
19.664	-0.210327148		
19.668	-0.209411621		
19.672	-0.208435059		
19.676	-0.207458496		
19.68	-0.206604004		
19.684	-0.205932617		
19.688	-0.205444336		
19.692	-0.20501709		
19.696	-0.204467773		
19.7	-0.203552246		
19.704	-0.202270508		
19.708	-0.200927734		
19.712	-0.199829102		
19.716	-0.199462891		
19.72	-0.199523926		
19.724	-0.199829102		
19.728	-0.199951172		
19.732	-0.199523926		
19.736	-0.198486328		
19.74	-0.196838379		
19.744	-0.194702148		
19.748	-0.192199707		
19.752	-0.188903809		
19.756	-0.184020996		
19.76	-0.175842285		
19.764	-0.16217041		
19.768	-0.140441895		
19.772	-0.108825684		
19.776	-0.067382813		
19.78	-0.01763916		
19.784	0.037963867		
19.788	0.096374512		
19.792	0.155334473		
19.796	0.213256836		
19.8	0.269287109		
19.804	0.322570801		
19.808	0.372375488		
19.812	0.418395996		
19.816	0.460266113		
19.82	0.49822998		
19.824	0.532409668		
19.828	0.563049316		
19.832	0.590576172		
19.836	0.614807129		
19.84	0.636047363		
19.844	0.65435791		
19.848	0.66973877		
19.852	0.682312012		
19.856	0.692199707		
19.86	0.699462891		
19.864	0.704345703		
19.868	0.70703125		
19.872	0.707519531		
19.876	0.706237793		
19.88	0.703430176		
19.884	0.69934082		
19.888	0.694030762		
19.892	0.687561035		
19.896	0.67980957		
19.9	0.671142578		
19.904	0.661560059		
19.908	0.651306152		
19.912	0.640686035		
19.916	0.629638672		
19.92	0.617858887		
19.924	0.605102539		
19.928	0.591308594		
19.932	0.576965332		
19.936	0.562011719		
19.94	0.546691895		
19.944	0.530822754		
19.948	0.514038086		
19.952	0.496337891		
19.956	0.477722168		
19.96	0.458129883		
19.964	0.43737793		
19.968	0.415527344		
19.972	0.392272949		
19.976	0.367614746		
19.98	0.341674805		
19.984	0.314941406		
19.988	0.287536621		
19.992	0.25958252		
19.996	0.230957031		
20	0.201599121		
20.004	0.171569824		
20.008	0.141296387		
20.012	0.110900879		
20.016	0.080688477		
20.02	0.05078125		
20.024	0.021179199		
20.028	-0.008239746		
20.032	-0.03704834		
20.036	-0.064697266		
20.04	-0.090881348		
20.044	-0.115356445		
20.048	-0.138061523		
20.052	-0.159118652		
20.056	-0.178894043		
20.06	-0.19720459		
20.064	-0.214050293		
20.068	-0.229553223		
20.072	-0.243591309		
20.076	-0.256225586		
20.08	-0.26776123		
20.084	-0.278076172		
20.088	-0.287475586		
20.092	-0.295959473		
20.096	-0.303710938		
20.1	-0.310791016		
20.104	-0.317321777		
20.108	-0.323303223		
20.112	-0.328857422		
20.116	-0.333984375		
20.12	-0.338745117		
20.124	-0.343261719		
20.128	-0.34753418		
20.132	-0.35144043		
20.136	-0.35534668		
20.14	-0.359375		
20.144	-0.363464355		
20.148	-0.367492676		
20.152	-0.371337891		
20.156	-0.374938965		
20.16	-0.378234863		
20.164	-0.381103516		
20.168	-0.383728027		
20.172	-0.386230469		
20.176	-0.388671875		
20.18	-0.390869141		
20.184	-0.392944336		
20.188	-0.394958496		
20.192	-0.396728516		
20.196	-0.39831543		
20.2	-0.399536133		
20.204	-0.400756836		
20.208	-0.401916504		
20.212	-0.403137207		
20.216	-0.404418945		
20.22	-0.405578613		
20.224	-0.40637207		
20.228	-0.406738281		
20.232	-0.406555176		
20.236	-0.406005859		
20.24	-0.405029297		
20.244	-0.403686523		
20.248	-0.401916504		
20.252	-0.399902344		
20.256	-0.397827148		
20.26	-0.395812988		
20.264	-0.393859863		
20.268	-0.392089844		
20.272	-0.390380859		
20.276	-0.38861084		
20.28	-0.386962891		
20.284	-0.385437012		
20.288	-0.384277344		
20.292	-0.383056641		
20.296	-0.381896973		
20.3	-0.380554199		
20.304	-0.37902832		
20.308	-0.377197266		
20.312	-0.374938965		
20.316	-0.372680664		
20.32	-0.370300293		
20.324	-0.368041992		
20.328	-0.366210938		
20.332	-0.364562988		
20.336	-0.362854004		
20.34	-0.360900879		
20.344	-0.358825684		
20.348	-0.356445313		
20.352	-0.354064941		
20.356	-0.351989746		
20.36	-0.350219727		
20.364	-0.348693848		
20.368	-0.347290039		
20.372	-0.34576416		
20.376	-0.344238281		
20.38	-0.342529297		
20.384	-0.340698242		
20.388	-0.338867188		
20.392	-0.336914063		
20.396	-0.335083008		
20.4	-0.333007813		
20.404	-0.330810547		
20.408	-0.328430176		
20.412	-0.325927734		
20.416	-0.323669434		
20.42	-0.321716309		
20.424	-0.320251465		
20.428	-0.318847656		
20.432	-0.317321777		
20.436	-0.315734863		
20.44	-0.313781738		
20.444	-0.311706543		
20.448	-0.309631348		
20.452	-0.307495117		
20.456	-0.305480957		
20.46	-0.303588867		
20.464	-0.302062988		
20.468	-0.30090332		
20.472	-0.299926758		
20.476	-0.29901123		
20.48	-0.297851563		
20.484	-0.296447754		
20.488	-0.29486084		
20.492	-0.29309082		
20.496	-0.291381836		
20.5	-0.289550781		
20.504	-0.287780762		
20.508	-0.286132813		
20.512	-0.284606934		
20.516	-0.28314209		
20.52	-0.281677246		
20.524	-0.280029297		
20.528	-0.278015137		
20.532	-0.275878906		
20.536	-0.273864746		
20.54	-0.271972656		
20.544	-0.270263672		
20.548	-0.268554688		
20.552	-0.266906738		
20.556	-0.265258789		
20.56	-0.263427734		
20.564	-0.26159668		
20.568	-0.259765625		
20.572	-0.257751465		
20.576	-0.25567627		
20.58	-0.253540039		
20.584	-0.251525879		
20.588	-0.249755859		
20.592	-0.248168945		
20.596	-0.246704102		
20.6	-0.245422363		
20.604	-0.244262695		
20.608	-0.243164063		
20.612	-0.2421875		
20.616	-0.241149902		
20.62	-0.239990234		
20.624	-0.238769531		
20.628	-0.237426758		
20.632	-0.235961914		
20.636	-0.23449707		
20.64	-0.232849121		
20.644	-0.231018066		
20.648	-0.229064941		
20.652	-0.227172852		
20.656	-0.225524902		
20.66	-0.224121094		
20.664	-0.222900391		
20.668	-0.221740723		
20.672	-0.220397949		
20.676	-0.218933105		
20.68	-0.217468262		
20.684	-0.216186523		
20.688	-0.215148926		
20.692	-0.214111328		
20.696	-0.213134766		
20.7	-0.212097168		
20.704	-0.210998535		
20.708	-0.209960938		
20.712	-0.20892334		
20.716	-0.207824707		
20.72	-0.206298828		
20.724	-0.204223633		
20.728	-0.201416016		
20.732	-0.19708252		
20.736	-0.190307617		
20.74	-0.179138184		
20.744	-0.161132813		
20.748	-0.13458252		
20.752	-0.098815918		
20.756	-0.054748535		
20.76	-0.004333496		
20.764	0.049865723		
20.768	0.105895996		
20.772	0.16204834		
20.776	0.217346191		
20.78	0.270874023		
20.784	0.321716309		
20.788	0.36920166		
20.792	0.412719727		
20.796	0.452209473		
20.8	0.487609863		
20.804	0.518981934		
20.808	0.546508789		
20.812	0.570251465		
20.816	0.590454102		
20.82	0.60736084		
20.824	0.62121582		
20.828	0.632263184		
20.832	0.640563965		
20.836	0.64630127		
20.84	0.649414063		
20.844	0.650268555		
20.848	0.649047852		
20.852	0.646057129		
20.856	0.641662598		
20.86	0.636169434		
20.864	0.629760742		
20.868	0.622375488		
20.872	0.614196777		
20.876	0.604919434		
20.88	0.594543457		
20.884	0.583129883		
20.888	0.570861816		
20.892	0.557678223		
20.896	0.543395996		
20.9	0.528320313		
20.904	0.512268066		
20.908	0.495239258		
20.912	0.477294922		
20.916	0.458374023		
20.92	0.438598633		
20.924	0.417724609		
20.928	0.395568848		
20.932	0.372009277		
20.936	0.346984863		
20.94	0.320678711		
20.944	0.293029785		
20.948	0.264221191		
20.952	0.234436035		
20.956	0.203857422		
20.96	0.172485352		
20.964	0.14050293		
20.968	0.108642578		
20.972	0.077148438		
20.976	0.046508789		
20.98	0.017089844		
20.984	-0.011047363		
20.988	-0.038146973		
20.992	-0.064208984		
20.996	-0.089050293		
21	-0.112426758		
21.004	-0.134277344		
21.008	-0.15447998		
21.012	-0.173095703		
21.016	-0.190368652		
21.02	-0.206237793		
21.024	-0.22064209		
21.028	-0.233886719		
21.032	-0.24597168		
21.036	-0.257080078		
21.04	-0.267272949		
21.044	-0.276733398		
21.048	-0.285339355		
21.052	-0.293151855		
21.056	-0.300354004		
21.06	-0.307006836		
21.064	-0.313476563		
21.068	-0.319580078		
21.072	-0.325134277		
21.076	-0.330322266		
21.08	-0.334838867		
21.084	-0.338684082		
21.088	-0.342041016		
21.092	-0.345031738		
21.096	-0.347717285		
21.1	-0.350402832		
21.104	-0.353149414		
21.108	-0.356018066		
21.112	-0.359069824		
21.116	-0.362121582		
21.12	-0.364807129		
21.124	-0.36706543		
21.128	-0.368713379		
21.132	-0.369873047		
21.136	-0.370910645		
21.14	-0.372009277		
21.144	-0.37322998		
21.148	-0.374328613		
21.152	-0.375366211		
21.156	-0.376403809		
21.16	-0.377319336		
21.164	-0.378356934		
21.168	-0.379638672		
21.172	-0.380737305		
21.176	-0.381652832		
21.18	-0.382141113		
21.184	-0.382141113		
21.188	-0.381713867		
21.192	-0.380859375		
21.196	-0.379882813		
21.2	-0.37878418		
21.204	-0.377807617		
21.208	-0.37689209		
21.212	-0.376037598		
21.216	-0.375305176		
21.22	-0.374755859		
21.224	-0.374389648		
21.228	-0.374145508		
21.232	-0.373779297		
21.236	-0.37322998		
21.24	-0.372375488		
21.244	-0.371154785		
21.248	-0.369689941		
21.252	-0.368103027		
21.256	-0.366455078		
21.26	-0.364929199		
21.264	-0.363708496		
21.268	-0.362548828		
21.272	-0.36114502		
21.276	-0.359436035		
21.28	-0.357177734		
21.284	-0.354553223		
21.288	-0.351745605		
21.292	-0.348754883		
21.296	-0.34576416		
21.3	-0.342834473		
21.304	-0.339904785		
21.308	-0.337219238		
21.312	-0.334594727		
21.316	-0.33215332		
21.32	-0.329833984		
21.324	-0.327514648		
21.328	-0.325134277		
21.332	-0.322998047		
21.336	-0.321044922		
21.34	-0.319030762		
21.344	-0.316955566		
21.348	-0.314697266		
21.352	-0.312255859		
21.356	-0.309875488		
21.36	-0.307373047		
21.364	-0.305175781		
21.368	-0.303100586		
21.372	-0.301086426		
21.376	-0.29901123		
21.38	-0.297119141		
21.384	-0.295349121		
21.388	-0.293701172		
21.392	-0.292175293		
21.396	-0.290527344		
21.4	-0.288574219		
21.404	-0.286499023		
21.408	-0.284301758		
21.412	-0.282104492		
21.416	-0.280090332		
21.42	-0.278259277		
21.424	-0.276489258		
21.428	-0.274780273		
21.432	-0.273254395		
21.436	-0.271850586		
21.44	-0.270507813		
21.444	-0.269226074		
21.448	-0.267883301		
21.452	-0.266418457		
21.456	-0.264953613		
21.46	-0.263549805		
21.464	-0.262207031		
21.468	-0.261047363		
21.472	-0.25982666		
21.476	-0.258605957		
21.48	-0.257202148		
21.484	-0.25579834		
21.488	-0.254333496		
21.492	-0.252746582		
21.496	-0.251098633		
21.5	-0.249450684		
21.504	-0.247741699		
21.508	-0.24609375		
21.512	-0.244384766		
21.516	-0.242797852		
21.52	-0.241271973		
21.524	-0.239807129		
21.528	-0.238464355		
21.532	-0.237243652		
21.536	-0.23614502		
21.54	-0.235168457		
21.544	-0.234558105		
21.548	-0.234191895		
21.552	-0.233703613		
21.556	-0.233032227		
21.56	-0.231872559		
21.564	-0.230407715		
21.568	-0.228759766		
21.572	-0.227172852		
21.576	-0.225830078		
21.58	-0.22467041		
21.584	-0.223632813		
21.588	-0.222412109		
21.592	-0.221008301		
21.596	-0.219543457		
21.6	-0.218017578		
21.604	-0.216308594		
21.608	-0.214660645		
21.612	-0.213134766		
21.616	-0.211791992		
21.62	-0.210632324		
21.624	-0.209777832		
21.628	-0.209228516		
21.632	-0.208862305		
21.636	-0.208618164		
21.64	-0.208312988		
21.644	-0.207824707		
21.648	-0.20703125		
21.652	-0.205932617		
21.656	-0.204833984		
21.66	-0.203918457		
21.664	-0.203308105		
21.668	-0.202880859		
21.672	-0.202575684		
21.676	-0.201965332		
21.68	-0.201049805		
21.684	-0.200195313		
21.688	-0.19934082		
21.692	-0.198730469		
21.696	-0.198242188		
21.7	-0.197570801		
21.704	-0.196655273		
21.708	-0.195373535		
21.712	-0.194030762		
21.716	-0.192626953		
21.72	-0.191162109		
21.724	-0.189697266		
21.728	-0.188415527		
21.732	-0.187133789		
21.736	-0.185852051		
21.74	-0.184509277		
21.744	-0.183288574		
21.748	-0.181884766		
21.752	-0.180114746		
21.756	-0.17767334		
21.76	-0.173461914		
21.764	-0.16583252		
21.768	-0.152404785		
21.772	-0.130737305		
21.776	-0.099365234		
21.78	-0.057922363		
21.784	-0.007995605		
21.788	0.048034668		
21.792	0.107177734		
21.796	0.166870117		
21.8	0.225402832		
21.804	0.281982422		
21.808	0.3359375		
21.812	0.38671875		
21.816	0.434570313		
21.82	0.479187012		
21.824	0.520385742		
21.828	0.558349609		
21.832	0.592834473		
21.836	0.623657227		
21.84	0.650756836		
21.844	0.673950195		
21.848	0.69354248		
21.852	0.709838867		
21.856	0.723144531		
21.86	0.733886719		
21.864	0.74230957		
21.868	0.748596191		
21.872	0.752563477		
21.876	0.754333496		
21.88	0.754089355		
21.884	0.752075195		
21.888	0.748657227		
21.892	0.744140625		
21.896	0.738464355		
21.9	0.731506348		
21.904	0.723266602		
21.908	0.713867188		
21.912	0.703369141		
21.916	0.692016602		
21.92	0.680297852		
21.924	0.668029785		
21.928	0.655517578		
21.932	0.64263916		
21.936	0.629333496		
21.94	0.615600586		
21.944	0.601257324		
21.948	0.585876465		
21.952	0.569458008		
21.956	0.552185059		
21.96	0.534118652		
21.964	0.515380859		
21.968	0.49609375		
21.972	0.476318359		
21.976	0.455627441		
21.98	0.43371582		
21.984	0.410461426		
21.988	0.385681152		
21.992	0.359375		
21.996	0.331726074		
22	0.30279541		
22.004	0.273010254		
22.008	0.242675781		
22.012	0.211853027		
22.016	0.180664063		
22.02	0.149414063		
22.024	0.117980957		
22.028	0.086853027		
22.032	0.05645752		
22.036	0.026916504		
22.04	-0.001708984		
22.044	-0.029602051		
22.048	-0.056396484		
22.052	-0.081970215		
22.056	-0.105834961		
22.06	-0.127746582		
