   2.8968483e-02
   4.0674328e-02
   4.6365123e-02
   5.6511811e-02
   5.3746065e-02
   6.2969397e-02
   3.0723528e-02
   2.0533495e-02
   7.6495849e-04
  -1.6337870e-03
  -1.3318901e-02
   4.2348556e-03
  -1.9975256e-02
  -1.5577089e-02
  -1.8078680e-02
  -3.9219313e-03
  -1.2086713e-02
  -1.3247501e-03
  -1.6436747e-02
  -1.8923082e-02
  -2.0492674e-02
   5.5240265e-02
   1.6544882e-01
   3.1514827e-01
   3.6462111e-01
  -4.8413866e-01
  -6.4500024e-01
  -2.3593317e-01
  -6.4519644e-02
  -4.8731787e-02
  -2.1803663e-03
  -1.2774599e-02
  -8.6419348e-03
   3.3022717e-03
  -1.8268487e-02
   4.8802753e-03
  -3.9657783e-03
  -1.4595217e-02
   2.4451871e-02
   6.7392338e-03
   2.7190446e-02
   1.3947364e-02
   2.4318247e-02
   3.6601421e-02
   2.1108345e-02
   4.8748040e-02
   2.7969294e-02
   3.7261001e-02
   4.3668529e-02
   6.4596526e-02
   8.5714112e-02
   1.0574969e-01
   1.1984111e-01
   1.6567886e-01
   1.6820797e-01
   2.1260321e-01
   2.1372278e-01
   2.2825233e-01
   2.3763129e-01
   2.1755751e-01
   1.9519364e-01
   1.6682372e-01
   1.1710706e-01
   1.1420050e-01
   5.1405019e-02
   4.1882131e-02
   1.8393728e-02
   4.2874988e-04
  -1.4866471e-02
  -3.5919420e-02
  -1.7032486e-02
  -2.9030979e-02
  -2.7698202e-02
  -2.8537950e-02
  -2.8176727e-02
  -3.0242001e-02
  -1.7318712e-02
  -3.0194751e-02
  -7.3204845e-03
  -3.5419805e-02
  -2.8429698e-02
  -3.5840428e-02
  -1.3028129e-02
  -6.1593625e-03
  -8.1888231e-03
  -2.4177629e-03
   6.2157921e-03
  -5.6997180e-03
  -1.4615814e-02
  -4.5902530e-02
  -4.5919266e-02
  -6.1985402e-02
  -6.8987915e-02
  -5.4412160e-02
  -6.8598577e-02
  -6.9984071e-02
  -6.6123131e-02
  -6.2071855e-02
  -6.8203010e-02
  -6.7512246e-02
  -6.8643645e-02
  -6.4804577e-02
  -7.5697893e-02
  -3.3255775e-02
   8.1276323e-02
   2.6972190e-01
   4.1459309e-01
  -1.5841949e-01
  -6.6343153e-01
  -3.9507142e-01
  -1.7299502e-01
  -9.9536346e-02
  -7.9070246e-02
  -5.9402210e-02
  -8.3792187e-02
  -5.1852649e-02
  -6.2781113e-02
  -4.8006366e-02
  -3.4938784e-02
  -6.1259057e-02
  -3.2878761e-02
  -3.6470149e-02
  -2.6988210e-02
  -3.0291978e-02
  -3.0031444e-02
  -8.2039019e-03
  -1.0335571e-02
  -1.6543802e-02
   4.1183360e-03
  -3.5708661e-03
   3.1142065e-02
   2.5161703e-02
   4.8659674e-02
   5.8704199e-02
   8.2156416e-02
   1.1529368e-01
   1.4060264e-01
   1.6345144e-01
   1.9343268e-01
   1.8823821e-01
   2.1481246e-01
   1.9168866e-01
   1.8406181e-01
   1.4856677e-01
   1.1933872e-01
   8.4603917e-02
   4.7265478e-02
   1.3657612e-02
   2.8536203e-03
  -2.5691057e-02
  -2.6572141e-02
  -3.8487503e-02
  -4.1661064e-02
  -2.8664282e-02
  -4.5342515e-02
  -2.3140920e-02
  -3.8542384e-02
  -3.2020423e-02
  -2.9968894e-02
  -3.0103461e-02
  -3.9052049e-02
  -3.4342426e-02
  -4.2389445e-02
  -3.5861143e-02
  -4.5816635e-02
  -1.5536324e-02
  -1.5017199e-02
  -1.7847207e-02
  -7.7920539e-03
  -1.5616902e-02
   2.9639255e-03
  -3.0098532e-02
  -5.3414146e-02
  -5.9551777e-02
  -7.0519958e-02
  -6.3971948e-02
  -5.6826610e-02
  -7.4025203e-02
  -7.1485809e-02
  -7.1664949e-02
  -6.4967323e-02
  -7.3295765e-02
  -6.5625138e-02
  -7.2666181e-02
  -6.3120681e-02
  -5.6748942e-02
   2.8464671e-02
   1.2151135e-01
   2.6377730e-01
   2.9069395e-01
  -6.1404717e-01
  -7.9276870e-01
  -3.1206317e-01
  -1.2021471e-01
  -8.4245427e-02
  -4.3455353e-02
  -5.4358397e-02
  -4.9825894e-02
  -3.7042833e-02
  -4.9390224e-02
  -3.1374284e-02
  -3.1109703e-02
  -4.1020541e-02
  -5.7115182e-03
  -3.9547107e-02
   1.6689018e-04
  -1.3057408e-02
  -2.2024415e-03
   1.0475437e-02
  -4.8797931e-05
   1.1953558e-02
   2.4624334e-02
   2.1281775e-02
   5.6731151e-02
   3.8723404e-02
   8.8386393e-02
   8.7369713e-02
   1.1431652e-01
   1.5245107e-01
   1.6770830e-01
   1.9980669e-01
   2.1499636e-01
   2.2248925e-01
   2.2475205e-01
   2.1100328e-01
   1.9262403e-01
   1.5313479e-01
   1.1046283e-01
   9.1694962e-02
   3.9367146e-02
   3.3739654e-02
   2.1203362e-04
  -1.2327508e-02
  -1.2704395e-02
  -1.8106038e-02
  -1.9981341e-02
  -1.3357662e-02
  -2.9812869e-02
  -6.7818887e-03
  -2.5564400e-02
  -3.5935576e-03
  -2.1550295e-02
  -1.2683292e-02
  -1.5671373e-02
  -2.7765178e-02
  -2.7727219e-02
  -1.4975043e-02
  -6.0013519e-03
   1.0306239e-02
   8.8605644e-03
   4.0570818e-03
   1.1205644e-02
   6.1184935e-03
  -3.0949836e-03
  -3.9223760e-02
  -3.5017831e-02
  -5.1969237e-02
  -4.7647271e-02
  -5.2644535e-02
  -5.7586676e-02
  -6.4245868e-02
  -5.5947105e-02
  -6.6185173e-02
  -5.2101517e-02
  -7.5987068e-02
  -5.8633837e-02
  -6.9806881e-02
  -5.0047746e-02
  -1.2524639e-02
   7.4148869e-02
   1.6595785e-01
   2.3596420e-01
  -3.3354430e-01
  -7.8300590e-01
  -4.7823510e-01
  -1.8461891e-01
  -8.3112216e-02
  -5.2671325e-02
  -3.3456571e-02
  -5.5036028e-02
  -2.2221919e-02
  -4.5042839e-02
  -2.6162409e-02
  -2.2767120e-02
  -2.2216883e-02
  -6.8810170e-03
  -7.7124145e-03
  -9.3883149e-03
   1.3097569e-02
  -9.1610082e-03
   1.8809852e-02
  -3.9389552e-04
   1.7587596e-02
   2.8921102e-02
   9.4083835e-03
   3.8870803e-02
   5.1947659e-02
   6.5017168e-02
   9.4397766e-02
   1.0223673e-01
   1.4994755e-01
   1.5940544e-01
   1.8718823e-01
   2.1081218e-01
   1.9621878e-01
   2.3082555e-01
   2.0321858e-01
   1.9504696e-01
   1.5799033e-01
   1.2510612e-01
   8.8015706e-02
   5.6191126e-02
   2.2377526e-02
   1.4819881e-02
  -2.2060068e-02
  -2.0405342e-02
  -3.6600411e-02
  -3.0111830e-02
  -3.3391589e-02
  -2.9316286e-02
  -2.8254638e-02
  -2.8694497e-02
  -3.2481193e-02
  -2.5816265e-02
  -2.6413857e-02
  -3.0338206e-02
  -3.1132626e-02
  -3.4394948e-02
  -2.8117331e-02
  -3.8249373e-02
  -1.3185915e-02
  -2.2722655e-02
  -1.1529982e-02
  -5.7339293e-03
   5.3898729e-03
  -1.4844115e-02
  -3.4252834e-02
  -5.8126030e-02
  -5.2494184e-02
  -7.1070435e-02
  -5.7392120e-02
  -7.6015506e-02
  -7.9616775e-02
  -7.5056956e-02
  -7.2097172e-02
  -8.4096561e-02
  -8.3007018e-02
  -8.1157211e-02
  -7.6433983e-02
  -7.3932653e-02
  -4.6259311e-02
   2.4138017e-02
   1.0162033e-01
   2.0048245e-01
  -8.7923024e-03
  -7.7083292e-01
  -8.4686962e-01
  -3.0392765e-01
  -1.2019077e-01
  -7.6536884e-02
  -5.7369583e-02
  -4.7010718e-02
  -5.0795848e-02
  -2.6179154e-02
  -5.6137107e-02
  -1.9510228e-02
  -3.2607230e-02
  -2.6062148e-02
  -1.8579956e-02
  -1.5880239e-02
   3.6848265e-03
  -7.8324507e-03
  -2.0920242e-03
   1.9887472e-02
   9.6222595e-03
   1.7181409e-02
   2.6124785e-02
   3.2897749e-02
   5.3412914e-02
   5.4330413e-02
   8.5893997e-02
   9.5637062e-02
   1.2719737e-01
   1.5714177e-01
   1.7451448e-01
   1.9980203e-01
   2.2040357e-01
   2.1767376e-01
   2.3628490e-01
   2.0068888e-01
   1.8976561e-01
   1.4082504e-01
   1.1337672e-01
   7.5837444e-02
   4.6143247e-02
   1.8994915e-02
   6.0935454e-04
  -1.7071570e-02
  -1.9792875e-02
  -2.4250192e-02
  -2.6246589e-02
  -1.5118598e-02
  -3.1449321e-02
  -2.0361097e-02
  -3.3870363e-02
  -1.1377902e-02
  -2.4866726e-02
  -1.6213248e-02
  -2.5485849e-02
  -2.7933342e-02
  -2.6670066e-02
  -1.9374933e-02
  -2.0936934e-02
   4.1142993e-03
  -1.1833813e-02
   8.1838875e-03
   1.1226750e-03
   5.2061176e-03
  -1.5520548e-02
  -3.5501927e-02
  -4.6541620e-02
  -4.7999606e-02
  -4.9384129e-02
  -4.5341717e-02
  -6.4535871e-02
  -6.6120626e-02
  -6.2488317e-02
  -6.8019934e-02
  -5.5430589e-02
  -6.8289138e-02
  -5.5622172e-02
  -6.6475966e-02
  -4.7253901e-02
   3.9661067e-03
   8.1982614e-02
   1.5417394e-01
   2.0896628e-01
  -4.1430478e-01
  -7.8448401e-01
  -4.4546277e-01
  -1.5548419e-01
  -7.7376771e-02
  -4.2602738e-02
  -3.8716869e-02
  -3.7977947e-02
  -1.3369089e-02
  -3.9184588e-02
  -2.2020254e-02
  -2.2433412e-02
  -3.0342651e-02
  -3.6789933e-03
  -1.1653254e-02
  -1.5446111e-02
   2.9297439e-03
  -1.2306070e-02
   1.6767906e-02
  -4.4328094e-03
   1.1165415e-02
   4.1696262e-03
   1.5076962e-02
   3.2429247e-02
   4.2836976e-02
   5.2511691e-02
   8.0423030e-02
   9.2332600e-02
   1.4817025e-01
   1.5524324e-01
   1.9408249e-01
   1.9733208e-01
   2.1035368e-01
   2.2459309e-01
   2.0398293e-01
   1.8128777e-01
   1.5973523e-01
   1.1400558e-01
   9.1439609e-02
   4.6720795e-02
   2.8439361e-02
   1.1319206e-02
  -1.3229241e-02
  -1.7390747e-02
  -3.0861095e-02
  -2.9493171e-02
  -3.1768772e-02
  -1.1259738e-02
  -1.4886735e-02
  -3.6526533e-03
  -1.1973544e-02
   8.9343614e-04
  -1.3391015e-02
  -2.3761769e-03
  -2.5670137e-02
  -1.4417020e-02
  -6.9720672e-03
   1.4542724e-02
   2.4675905e-02
   2.2491052e-02
   2.3184740e-02
   4.5686441e-02
   4.7995913e-02
   2.8047761e-02
   5.3393194e-03
   1.4154241e-03
  -5.8360357e-03
  -1.8926609e-02
  -4.9974453e-03
  -1.1200307e-02
  -1.5456129e-02
  -1.8261640e-02
  -5.6836539e-03
  -6.6805408e-03
   6.5926527e-03
  -1.1803721e-02
  -2.3944244e-04
  -7.2558439e-03
   3.6060410e-02
   1.2763896e-01
   2.8930221e-01
   4.3611278e-01
   1.3585990e-01
  -5.4793230e-01
  -3.7238089e-01
  -1.2233553e-01
  -1.6051606e-02
  -1.4334622e-02
   2.9930840e-02
  -2.7129028e-03
   7.9624192e-03
   2.1490160e-02
  -3.4749097e-03
   3.0987572e-02
   1.6580307e-02
   4.1148205e-02
   2.9281145e-02
   3.5551256e-02
   4.3374734e-02
   4.0813505e-02
   5.8461576e-02
   7.7304828e-02
   5.9712091e-02
   7.0625276e-02
   4.9807214e-02
   8.1205095e-02
   8.5174342e-02
   1.0788119e-01
   1.3726301e-01
   1.5851086e-01
   1.9341337e-01
   2.4258879e-01
   2.5670008e-01
   2.9935369e-01
   2.7780189e-01
   2.7218234e-01
   2.7990066e-01
   2.4211572e-01
   2.2169082e-01
   1.7623279e-01
   1.5074867e-01
   1.0289755e-01
   7.5068103e-02
   4.4065815e-02
   2.4121159e-02
   1.7561462e-02
   2.0230055e-02
  -6.9636489e-03
   3.9723100e-02
   1.3975970e-01
   2.7873735e-01
   3.1763220e-01
  -1.5209600e-01
  -6.3732825e-01
  -2.9125579e-01
  -7.0452855e-02
  -4.6299373e-02
  -6.1693938e-02
  -3.5375751e-02
  -6.7267354e-02
  -3.8368421e-02
  -4.4058596e-02
  -5.2948290e-02
  -2.0216616e-02
  -5.2695528e-02
  -1.7416209e-02
  -3.1528932e-02
  -2.4658584e-02
  -1.9315710e-02
  -2.8938254e-02
  -2.5836342e-02
  -9.5426777e-03
  -1.1809372e-02
   2.1720542e-02
   1.3823315e-02
   5.0735525e-02
   5.2575915e-02
   7.5761176e-02
   1.0274361e-01
   1.1691775e-01
   1.4696689e-01
   1.5996277e-01
   1.6340412e-01
   1.6469292e-01
   1.3040146e-01
   1.2387305e-01
   8.2959328e-02
   4.6238599e-02
   2.5808115e-02
  -1.6431158e-02
  -2.5128362e-02
  -4.0509250e-02
  -3.7073891e-02
  -5.2823075e-02
  -5.9648464e-02
  -5.8886056e-02
  -6.8124239e-02
  -8.0419669e-02
  -6.1915803e-02
  -8.1933875e-02
  -6.7879331e-02
  -8.1455220e-02
  -7.8238326e-02
  -8.0862974e-02
  -8.4652813e-02
  -9.1529225e-02
  -9.9619128e-02
  -8.7098683e-02
  -8.4151721e-02
  -8.3122293e-02
  -9.5072463e-02
  -8.3314108e-02
  -9.0175208e-02
  -7.3000400e-02
  -9.6280983e-02
  -7.9025921e-02
  -9.6609862e-02
  -8.3569309e-02
  -8.2304032e-02
  -7.9246474e-02
  -8.3179016e-02
  -7.0350893e-02
  -8.6647929e-02
  -6.6635013e-02
  -8.7421231e-02
  -6.7178261e-02
  -8.4088508e-02
  -7.0205190e-02
  -7.5915594e-02
  -7.0672634e-02
  -7.1556349e-02
  -6.7607501e-02
  -7.8949708e-02
  -7.0061139e-02
  -6.9535851e-02
  -7.5050187e-02
  -6.2392139e-02
  -4.7863076e-02
  -3.4063317e-02
  -3.8542308e-02
  -1.9530134e-02
  -2.5812036e-02
  -1.1946919e-02
  -3.7673033e-02
  -5.6960243e-02
  -6.9016108e-02
  -6.4484646e-02
  -7.6078225e-02
  -6.2667657e-02
  -8.0846475e-02
  -6.8521786e-02
  -7.3881933e-02
  -6.4998608e-02
  -7.2259222e-02
  -6.5022464e-02
  -6.7905947e-02
  -6.3023517e-02
  -4.5014530e-02
   6.6062762e-02
   1.8906619e-01
   4.0399087e-01
   4.5828463e-01
  -5.2257364e-01
  -6.8499232e-01
  -3.1284868e-01
  -1.3231497e-01
  -1.0168138e-01
  -4.8025220e-02
  -6.6535094e-02
  -5.3882904e-02
  -3.7179945e-02
  -5.3913764e-02
  -2.4331205e-02
  -2.5603367e-02
  -3.7551871e-02
  -3.7950987e-03
  -3.6450462e-02
  -3.1897221e-04
  -2.0086838e-02
  -6.5696178e-03
   4.9577881e-03
  -4.5635116e-03
   1.3551390e-02
   1.0624411e-02
   4.1627439e-03
   3.8592835e-02
   2.6920484e-02
   6.2592748e-02
   7.0372845e-02
   8.9926146e-02
   1.2714258e-01
   1.2343208e-01
   1.7121972e-01
   1.7592093e-01
   1.9549300e-01
   2.0628840e-01
   2.0473655e-01
   2.0590248e-01
   1.9642027e-01
   1.6630421e-01
   1.6564156e-01
   1.0627788e-01
   1.0506190e-01
   6.1569147e-02
   5.1590445e-02
   3.4206401e-02
   1.6863355e-02
   8.7799701e-03
  -3.5022514e-03
   8.1882784e-04
  -1.3016289e-03
   1.4145255e-03
   3.0466981e-03
   6.2163652e-03
   5.2855122e-04
   1.7802578e-02
   1.6666576e-03
   2.1997681e-02
   1.0939266e-02
   4.4705216e-02
   4.7042212e-02
   4.6884502e-02
   4.5671813e-02
   5.5929238e-02
   3.0018892e-02
   2.1278428e-02
  -1.8051592e-02
  -1.4986228e-02
  -2.9816013e-02
  -2.0717083e-02
  -2.5203542e-02
  -3.8181273e-02
  -3.6481206e-02
  -3.5257632e-02
  -4.6089605e-02
  -5.1376865e-02
  -4.4220680e-02
  -4.2036477e-02
  -3.6394945e-02
  -4.1958845e-02
   1.6320937e-02
   8.8920114e-02
   1.9570304e-01
   2.7136655e-01
  -2.9681856e-01
  -7.5181545e-01
  -4.3581346e-01
  -1.4677118e-01
  -4.9905842e-02
  -3.3393493e-02
  -4.8254748e-03
  -2.9927100e-02
   7.9861396e-03
  -2.4612757e-02
   4.4718597e-04
   7.9865430e-03
   5.5726683e-03
   1.5282279e-02
   9.9937860e-03
   1.9141169e-02
   2.1622132e-02
   1.9754750e-02
   3.3383420e-02
   3.4145202e-02
   3.3035778e-02
   5.9427379e-02
   3.9774748e-02
   7.5946836e-02
   5.8482583e-02
   9.1661350e-02
   1.1699386e-01
   1.2981571e-01
   1.6309269e-01
   1.8272267e-01
   2.0072499e-01
   2.3009752e-01
   2.2472886e-01
   2.4644010e-01
   2.1757245e-01
   2.0519387e-01
   1.6911688e-01
   1.2994662e-01
   9.9822420e-02
   6.2090397e-02
   2.8917746e-02
   1.2268321e-02
  -1.5990679e-02
  -1.7255738e-02
  -1.9675121e-02
  -3.2004964e-02
  -1.5278543e-02
  -3.6399001e-02
  -1.4242717e-02
  -2.5826387e-02
  -1.2972307e-02
  -2.6828312e-02
  -2.7077315e-02
  -3.0864795e-02
  -3.1535355e-02
  -3.9347456e-02
  -1.8641457e-02
  -1.8063200e-02
  -2.3627401e-03
  -1.2759279e-02
   4.3605419e-03
  -4.5846629e-03
  -1.3615867e-02
  -3.8610790e-02
  -4.8528370e-02
  -5.6875376e-02
  -6.0661409e-02
  -6.0371276e-02
  -6.4818601e-02
  -7.9578380e-02
  -8.3317668e-02
  -6.2381009e-02
  -8.0654147e-02
  -6.6977326e-02
  -8.0639344e-02
  -6.4325768e-02
  -7.8639335e-02
  -6.1939797e-02
  -1.0120520e-04
   8.2667746e-02
   1.7772395e-01
   2.2003547e-01
  -5.8654362e-01
  -8.1265271e-01
  -3.8625393e-01
  -1.3920239e-01
  -1.0031328e-01
  -5.5793053e-02
  -5.6123197e-02
  -5.6724108e-02
  -3.0773665e-02
  -6.4092788e-02
  -2.8419532e-02
  -4.1827984e-02
  -3.7052790e-02
  -2.3643737e-02
  -2.8807440e-02
  -1.0570468e-02
  -7.8810884e-03
  -2.2395887e-02
   1.3602930e-02
  -8.4302992e-03
   1.2659540e-02
   1.0390271e-02
   2.2353514e-02
   3.6358149e-02
   4.1069312e-02
   6.0805078e-02
   9.3767680e-02
   1.0665412e-01
   1.4910931e-01
   1.5051518e-01
   1.9905193e-01
   2.0779778e-01
   2.1158863e-01
   2.1224977e-01
   2.0562928e-01
   1.8350814e-01
   1.5704334e-01
   1.1129491e-01
   8.6182263e-02
   3.5222550e-02
   1.7047829e-02
  -4.6280586e-03
  -2.9414356e-02
  -2.1590629e-02
  -4.0455833e-02
   3.3530590e-02
   1.2234919e-01
   1.4573044e-01
   1.8496163e-01
  -3.1276427e-01
  -8.0597302e-01
  -5.2385570e-01
  -1.7111420e-01
  -7.3062176e-02
  -5.9797199e-02
  -3.1013676e-02
  -5.1550212e-02
  -2.5947774e-02
  -3.3726525e-02
  -4.4728880e-02
  -1.8930221e-02
  -2.6324855e-02
  -1.2591239e-02
  -2.5029772e-02
  -1.5539609e-02
  -1.0464269e-02
  -1.1808757e-02
  -4.4165588e-03
   8.7668025e-03
   1.3552822e-02
   4.2573089e-02
   4.2489780e-02
   6.9022019e-02
   8.2366406e-02
   1.1259315e-01
   1.4076766e-01
   1.6660247e-01
   1.8274191e-01
   2.0133544e-01
   1.9716884e-01
   2.0965128e-01
   1.8150330e-01
   1.7194760e-01
   1.2592352e-01
   9.6816623e-02
   5.8469711e-02
   3.0951956e-02
   1.0194063e-02
   4.4719899e-03
  -1.4465857e-02
  -8.4886707e-03
  -2.0222966e-02
  -2.0948187e-02
  -1.2463621e-02
  -3.4554330e-02
  -2.0610187e-02
  -4.0764651e-02
  -2.7173002e-02
  -3.8859529e-02
  -4.0153552e-02
  -6.1926812e-02
  -8.1204647e-02
  -1.0331189e-01
  -1.0497575e-01
  -1.0651260e-01
  -8.3795367e-02
  -8.2535341e-02
  -6.4879728e-02
  -7.1053930e-02
  -3.3135447e-02
  -1.9896804e-02
  -3.2566568e-02
  -1.7341820e-02
  -2.1069627e-02
  -9.0746436e-03
   7.1552016e-02
   1.5101257e-01
   2.4511095e-01
   2.5801072e-01
  -6.0702851e-01
  -7.7343675e-01
  -3.1720208e-01
  -8.5688160e-02
  -4.4985860e-02
   4.7587089e-03
  -5.4759877e-03
  -3.2424934e-03
   8.2058681e-03
  -4.1554131e-03
   1.2731779e-02
   2.3295793e-02
   1.1612072e-02
   4.0595875e-02
   1.1221401e-02
   4.0865324e-02
   3.7008454e-02
   2.2044111e-02
   5.2268467e-02
   2.2194063e-02
   5.3628299e-02
   4.0877109e-02
   5.6596384e-02
   7.9569480e-02
   7.7524613e-02
   1.0619592e-01
   1.2480309e-01
   1.4100689e-01
   1.8217716e-01
   1.7764351e-01
   2.1431796e-01
   2.0431615e-01
   2.1559952e-01
   2.1069961e-01
   1.8815566e-01
   1.5820955e-01
   1.3375177e-01
   8.5594247e-02
   7.4048322e-02
   2.2823746e-02
   2.1488911e-02
  -2.7777328e-03
  -1.5039672e-02
  -3.8015721e-03
  -2.2253662e-02
  -1.0605016e-02
  -2.8697851e-02
  -1.1267661e-02
  -2.0032528e-02
  -1.3060101e-02
  -1.7200640e-02
  -4.5740112e-03
  -3.1777758e-02
  -1.6676358e-02
  -3.3759757e-02
  -3.2810999e-02
  -4.6219757e-02
  -3.7621136e-02
  -5.2674555e-02
  -4.9899083e-02
  -5.4202052e-02
  -4.2201857e-02
  -5.8507523e-02
  -5.3973147e-02
  -7.0760563e-02
  -6.0234180e-02
  -5.8627121e-02
  -6.4023094e-02
  -5.5922251e-02
  -7.1060204e-02
  -5.6768953e-02
  -6.4518749e-02
  -5.4983916e-02
  -6.7104231e-02
  -5.7036491e-02
  -6.2812095e-02
  -5.5352069e-02
  -6.1159371e-02
  -5.3013893e-02
  -7.2615851e-02
  -5.9114906e-02
  -6.1276371e-02
  -5.1818517e-02
  -5.4400801e-02
  -6.2931552e-02
  -6.5254190e-02
  -5.7083891e-02
  -6.2316801e-02
  -5.0776780e-02
  -6.3416065e-02
  -4.6385869e-02
  -5.2741759e-02
  -3.8057143e-02
  -2.7161394e-02
  -3.3281314e-02
  -1.3110659e-02
  -1.2926195e-02
  -2.7981228e-02
  -3.8285505e-02
  -4.3458189e-02
  -5.3342044e-02
  -4.9046159e-02
  -6.8221367e-02
  -5.9393706e-02
  -7.8733025e-02
  -6.4181535e-02
  -6.4986013e-02
  -5.3541044e-02
  -6.5171878e-02
  -5.9202098e-02
  -6.4652477e-02
  -4.5572702e-02
   9.4844205e-03
   1.4208325e-01
   3.5651868e-01
   4.6514463e-01
  -2.7598822e-01
  -5.7986405e-01
  -3.0634491e-01
  -1.4417439e-01
  -1.0287260e-01
  -6.8663582e-02
  -7.0180469e-02
  -8.2864602e-02
  -5.4879530e-02
  -5.6771612e-02
  -3.4380550e-02
  -6.0194333e-02
  -5.2959137e-02
  -4.0714227e-02
  -4.0812576e-02
  -3.5498007e-02
  -2.5563435e-02
  -4.2236272e-02
  -1.2000524e-02
  -3.9791606e-02
  -1.1282855e-02
  -1.6015654e-02
  -1.5722186e-03
   6.7613936e-03
   1.0960838e-02
   3.2812194e-02
   4.9102795e-02
   6.3431695e-02
   1.0077426e-01
   1.0182102e-01
   1.4199931e-01
   1.6397489e-01
   1.7448685e-01
   1.9486156e-01
   1.9293908e-01
   2.0708294e-01
   1.7505928e-01
   1.7465096e-01
   1.2595132e-01
   8.9116998e-02
   5.6668506e-02
   5.0625831e-02
   3.5769950e-04
  -4.9441550e-03
  -3.0831369e-02
  -1.8201660e-02
  -4.9343761e-02
  -3.9853559e-02
  -4.0378315e-02
  -4.4635691e-02
  -5.3691344e-02
  -3.4421643e-02
  -3.4179318e-02
  -3.0108528e-02
  -2.9766624e-02
  -2.7880446e-02
  -1.4416132e-02
  -8.6230312e-03
   9.8949820e-03
  -1.8490532e-02
   1.8385152e-03
   6.1013498e-03
  -1.6587760e-02
  -3.5548768e-02
  -5.2413510e-02
  -7.1953463e-02
  -7.3917581e-02
  -9.0868482e-02
  -7.5776650e-02
  -9.6548691e-02
  -8.6737691e-02
  -8.8790622e-02
  -7.9809787e-02
  -8.5554152e-02
  -8.5717219e-02
  -8.6271939e-02
  -7.8026693e-02
  -7.9118640e-02
   3.0218958e-03
   1.1819502e-01
   3.4567518e-01
   4.2299946e-01
  -4.5440570e-01
  -6.5559738e-01
  -2.8899599e-01
  -1.2604430e-01
  -1.0347270e-01
  -6.0285046e-02
  -7.6849839e-02
  -7.4652137e-02
  -5.5737091e-02
  -7.5425478e-02
  -5.0795305e-02
  -4.5923109e-02
  -5.7562405e-02
  -2.1797248e-02
  -4.7695792e-02
  -1.5752237e-02
  -2.9942384e-02
  -2.5583096e-02
  -1.2234028e-02
  -2.0219397e-02
   4.0994430e-03
  -8.2930036e-03
   5.3996066e-03
   3.2768270e-02
   2.7262806e-02
   6.3650866e-02
   7.7952221e-02
   9.2181657e-02
   1.4214432e-01
   1.4972522e-01
   1.8907935e-01
   1.9908181e-01
   2.0943732e-01
   2.1788112e-01
   1.9746257e-01
   1.8540335e-01
   1.6090987e-01
   1.1211272e-01
   9.8416577e-02
   4.0120032e-02
   3.6047527e-02
  -2.8595994e-03
  -6.4924573e-03
  -1.6453904e-02
  -2.2984964e-02
  -2.3590470e-02
  -2.1456639e-02
  -2.9975514e-02
  -1.5681205e-02
  -2.1221030e-02
  -2.2009090e-02
  -2.0478832e-02
  -3.2697067e-02
  -1.9831094e-02
  -3.4178247e-02
  -2.0815118e-02
  -9.5278972e-03
  -6.3089416e-04
   6.1311047e-03
   7.6410427e-03
   1.0875821e-02
   2.1975803e-02
  -2.2536478e-02
  -2.7806403e-02
  -5.0300741e-02
  -4.2030603e-02
  -5.6882252e-02
  -4.6124619e-02
  -5.6365275e-02
  -5.3363254e-02
  -5.0853830e-02
  -4.4801946e-02
  -4.9447257e-02
  -3.9860467e-02
  -5.1153216e-02
  -4.9043082e-02
  -4.3355511e-02
  -3.1197366e-03
   9.4804553e-02
   2.0930099e-01
   3.3104695e-01
  -1.8191692e-01
  -7.1497961e-01
  -4.2316557e-01
  -1.5477745e-01
  -5.5001549e-02
  -2.7337747e-02
  -1.9532108e-02
  -2.0719861e-02
  -1.0916575e-02
  -2.4501600e-03
  -9.7556067e-03
   1.6550201e-02
   2.2504087e-03
   2.5675090e-02
   1.4697717e-02
   2.7749921e-02
   4.2763608e-02
   2.5836705e-02
   4.1670794e-02
   4.7077001e-02
   5.5457846e-02
   6.9063116e-02
   6.3721735e-02
   8.3317909e-02
   9.4345711e-02
   1.0797219e-01
   1.4027514e-01
   1.4668036e-01
   1.8480850e-01
   2.0654311e-01
   2.3562421e-01
   2.5221257e-01
   2.6948821e-01
   2.6759623e-01
   2.6933459e-01
   2.4385347e-01
   2.3492259e-01
   1.8790126e-01
   1.6531883e-01
   1.1715430e-01
   9.6602123e-02
   7.1867654e-02
   5.5607785e-02
   4.2013681e-02
   3.4522348e-02
   3.8545053e-02
   3.4391054e-02
   4.2663306e-02
   3.4658115e-02
   4.6812545e-02
   3.6317018e-02
   5.1700415e-02
   3.0563930e-02
   4.6879231e-02
   3.4357724e-02
   4.8935113e-02
   5.8334974e-02
   6.8494672e-02
   5.9137277e-02
   6.6633756e-02
   5.6760471e-02
   7.5464788e-02
   4.6512893e-02
   3.6602914e-02
   8.9409051e-03
   1.4406842e-02
  -2.3348521e-03
   8.4091979e-03
  -6.4075589e-03
  -1.3489976e-02
  -9.2132132e-03
  -9.5660811e-03
  -4.8199128e-03
  -1.4193673e-02
  -6.5875304e-03
  -1.1927320e-02
   2.3493459e-03
  -7.6209398e-03
   1.0022772e-01
   1.7001310e-01
   2.8868795e-01
   6.9875317e-02
  -6.6853242e-01
  -7.2317333e-01
  -2.1051872e-01
  -5.4183438e-02
  -1.4776611e-02
   4.0048413e-03
   9.5193749e-03
   5.8546591e-05
   2.7527197e-02
   1.8126602e-02
   2.0893174e-02
   2.5566370e-02
   2.7711678e-02
   4.8509135e-02
   2.5781724e-02
   5.1686152e-02
   3.7770883e-02
   4.9771459e-02
   5.4269968e-02
   5.3418332e-02
   5.7660938e-02
   6.9399089e-02
   6.6761448e-02
   9.5006975e-02
   8.5602166e-02
   1.2344161e-01
   1.3083264e-01
   1.5856149e-01
   1.8542232e-01
   2.0779246e-01
   2.2458501e-01
   2.4725432e-01
   2.4085177e-01
   2.5176526e-01
   2.2511772e-01
   2.1157356e-01
   1.6915378e-01
   1.3315026e-01
   9.7958245e-02
   6.2115077e-02
   3.7417199e-02
   2.0118346e-02
   4.2099551e-03
  -6.3084445e-03
  -7.1628855e-03
  -1.1469498e-02
  -9.0619338e-03
  -1.4690701e-02
  -5.5753430e-04
  -1.5565347e-02
  -8.1321472e-04
  -1.2786459e-02
  -3.4344383e-03
  -9.7958574e-03
  -1.3941749e-02
  -1.0390543e-02
   3.2761424e-03
  -7.0522578e-03
   6.6234268e-04
  -2.8900731e-03
   1.5541279e-02
  -5.3546097e-03
  -2.5696656e-02
  -4.3687131e-02
  -5.6175635e-02
  -6.3814297e-02
  -6.9718297e-02
  -6.0465165e-02
  -7.7496281e-02
  -7.0925516e-02
  -7.8052917e-02
  -6.8806350e-02
  -8.4713910e-02
  -7.6945575e-02
  -8.5216759e-02
  -7.2339586e-02
  -7.8311811e-02
  -8.1195834e-04
   7.7493770e-02
   1.7457684e-01
   2.0757115e-01
  -5.7151981e-01
  -8.2560157e-01
  -3.8041305e-01
  -1.5543947e-01
  -9.0933567e-02
  -5.9361116e-02
  -5.6852664e-02
  -6.0092730e-02
  -4.4301460e-02
  -5.4236545e-02
  -4.4251518e-02
  -3.1952799e-02
  -4.3664815e-02
  -1.5271220e-02
  -4.2687200e-02
  -1.9459864e-02
  -2.6842892e-02
  -2.2448467e-02
  -1.1289027e-02
  -1.1542520e-02
   2.0958434e-04
   3.4124037e-03
  -6.6524569e-03
   2.7661510e-02
   1.9619588e-02
   5.9449745e-02
   6.3272536e-02
   8.3994168e-02
   1.2129209e-01
   1.4562213e-01
   1.6906336e-01
   1.8326163e-01
   1.8964907e-01
   1.9160163e-01
   1.8615694e-01
   1.6963428e-01
   1.2912414e-01
   8.5205427e-02
   6.1553742e-02
   1.2167003e-02
  -1.2608664e-03
  -2.6329414e-02
  -3.9820116e-02
  -4.4752812e-02
  -5.2836228e-02
  -5.2039833e-02
  -4.6934618e-02
  -5.9649459e-02
  -3.6032692e-02
  -5.7251814e-02
  -3.7830305e-02
  -5.2263846e-02
  -4.9336729e-02
  -4.7232378e-02
  -5.1736767e-02
  -3.9019403e-02
  -2.7704551e-02
  -2.9400474e-02
  -2.8039279e-02
  -2.7040386e-02
  -2.4222779e-02
  -8.6056469e-03
  -4.3733465e-02
  -5.3870310e-02
  -8.2184076e-02
  -6.9588208e-02
  -8.4335693e-02
  -7.4612621e-02
  -9.4728423e-02
  -9.7495933e-02
  -9.5843271e-02
  -8.4683110e-02
  -9.5307675e-02
  -7.6173179e-02
  -9.2613855e-02
  -7.6779605e-02
  -9.0400690e-02
  -4.6652632e-02
   3.1080791e-02
   1.1138676e-01
   1.8085994e-01
  -2.5898109e-01
  -8.2914296e-01
  -5.4024266e-01
  -2.3402554e-01
  -1.0571762e-01
  -7.7749532e-02
  -5.7598996e-02
  -6.4879572e-02
  -4.7706655e-02
  -4.1201111e-02
  -5.2723825e-02
  -2.9845642e-02
  -4.9710436e-02
  -2.4376069e-02
  -3.2326541e-02
  -1.8396516e-02
  -1.6686037e-02
  -1.9950557e-02
  -1.1217662e-02
   6.5270219e-03
  -8.8051498e-03
   1.6019468e-02
   4.4685854e-03
   2.7477870e-02
   3.4674650e-02
   5.0458550e-02
   6.8856738e-02
   9.3309688e-02
   1.1590429e-01
   1.4798976e-01
   1.6915703e-01
   1.9249393e-01
   1.9724193e-01
   1.9999186e-01
   2.0661534e-01
   1.7417609e-01
   1.5606649e-01
   1.1158642e-01
   8.4181795e-02
   4.5129503e-02
   1.7968203e-02
  -1.0872883e-02
  -2.0273214e-02
  -3.2794087e-02
  -3.6800155e-02
  -4.4110148e-02
  -3.2946780e-02
  -4.6650280e-02
  -3.0086552e-02
  -2.8621503e-02
  -3.9992863e-02
  -2.5819339e-02
  -4.2336756e-02
  -3.2143199e-02
  -4.5405269e-02
  -3.6590782e-02
  -3.8031133e-02
  -2.4067656e-02
  -2.4235764e-02
  -1.2315540e-02
  -1.8362782e-02
  -9.3342938e-05
  -2.5184188e-02
  -3.0930454e-02
  -4.9218451e-02
  -5.4479763e-02
  -6.2344284e-02
  -5.7108703e-02
  -7.2634068e-02
  -7.1298165e-02
  -8.1267862e-02
  -6.4326988e-02
  -7.8654110e-02
  -6.4776351e-02
  -7.8006121e-02
  -6.7811419e-02
  -7.1384820e-02
  -5.0398256e-02
   1.1758951e-02
   8.9605712e-02
   1.7414562e-01
   1.9236260e-01
  -6.2060753e-01
  -8.3170290e-01
  -3.6056828e-01
  -1.3254945e-01
  -7.9490551e-02
  -4.0251816e-02
  -3.4391290e-02
  -5.1639331e-02
  -9.7507574e-03
  -4.3632963e-02
  -7.8557252e-03
  -1.6279437e-02
  -1.1834265e-02
  -2.8896803e-03
  -8.8278616e-03
   4.8851012e-03
   1.2203566e-02
   2.3472055e-03
   2.4517662e-02
   1.0622964e-02
   1.8329729e-02
   3.4827880e-02
   2.2254589e-02
   6.1385864e-02
   5.9775360e-02
   8.6798872e-02
   1.0736252e-01
   1.2669602e-01
   1.6386464e-01
   1.8382145e-01
   2.1026991e-01
   2.3078386e-01
   2.2639905e-01
   2.4700016e-01
   2.1399397e-01
   2.0912535e-01
   1.6506440e-01
   1.3129320e-01
   1.0018091e-01
   6.3703823e-02
   3.7334826e-02
   2.8222714e-02
   3.6664134e-04
   7.7673455e-03
  -1.2449883e-02
  -9.1111886e-03
  -3.9261757e-03
  -1.4988307e-02
   5.2829117e-03
  -1.2871791e-02
   4.2690800e-03
  -1.0083592e-02
  -8.2893147e-04
  -1.4638002e-03
  -3.3322581e-03
  -2.4516381e-03
   1.3620421e-02
   1.3310479e-02
   2.6992513e-02
   1.0945814e-02
   3.5962319e-02
   2.3024246e-02
   1.7755357e-02
  -9.2852929e-03
  -1.4572320e-02
  -2.5159568e-02
  -2.2958746e-02
  -2.8713817e-02
  -2.0585671e-02
  -3.5394552e-02
  -2.6489180e-02
  -2.4158834e-02
  -2.9104060e-02
  -3.2094087e-02
  -3.6124968e-02
  -2.7601318e-02
  -2.0250176e-02
   9.2937878e-03
   8.0375612e-02
   1.5720407e-01
   2.4028674e-01
  -1.0146749e-01
  -7.3031387e-01
  -4.7144138e-01
  -1.6977300e-01
  -3.7988361e-02
  -2.0879338e-02
   1.0160361e-02
  -1.5502607e-02
   6.5226762e-03
   6.4800650e-03
   1.4301678e-02
   3.2990921e-02
   2.9643260e-02
   4.0281860e-02
   4.0759356e-02
   2.4485218e-02
   3.1536267e-02
   2.9322924e-02
   4.9262119e-02
   5.4673471e-02
   3.4575511e-02
   7.4117941e-02
   5.5152188e-02
   6.8382555e-02
   6.3187700e-02
   8.4579376e-02
   1.1238056e-01
   1.2990434e-01
   1.7147361e-01
   2.0251715e-01
   2.0968939e-01
   2.4086428e-01
   2.3549471e-01
   2.5594247e-01
   2.3741080e-01
   2.2013613e-01
   2.0494300e-01
   1.7136395e-01
   1.3556916e-01
   1.0683039e-01
   6.0471900e-02
   4.3813447e-02
   1.0959847e-02
   4.6968615e-03
   1.5042038e-02
  -9.1438798e-03
   6.7981769e-03
  -9.1762547e-03
   1.4033537e-02
   9.2068623e-03
   1.2003044e-03
  -9.2724463e-03
  -4.2271622e-03
  -1.1124208e-02
  -6.4686070e-03
  -1.9147941e-02
   4.7638772e-03
   5.5021412e-03
   1.3628662e-02
  -2.0039677e-03
   1.0532370e-02
   2.4161112e-02
   6.2972023e-03
  -2.1855674e-02
  -3.2388979e-02
  -5.8636077e-02
  -5.6613677e-02
  -6.4314246e-02
  -5.2413730e-02
  -4.8278321e-02
  -6.3271756e-02
  -5.7629910e-02
  -7.3811395e-02
  -6.7713287e-02
  -7.8597477e-02
  -6.3638308e-02
  -6.7994934e-02
  -5.4100865e-02
   1.9912724e-02
   1.4953272e-01
   3.0396265e-01
   3.7661730e-01
  -4.1791470e-01
  -6.3145349e-01
  -2.5578644e-01
  -1.0465107e-01
  -9.8226032e-02
  -5.5418529e-02
  -6.8311089e-02
  -6.7329421e-02
  -4.0896784e-02
  -8.0555288e-02
  -5.7046473e-02
  -5.3467631e-02
  -4.6189487e-02
  -3.2543245e-02
  -4.9379019e-02
  -3.7643245e-02
  -2.8541653e-02
  -5.4746757e-02
  -2.4331535e-02
  -4.8102001e-02
  -8.3491427e-03
  -1.3873760e-02
  -3.8765112e-03
   1.4194824e-02
   8.5119902e-03
   3.5653468e-02
   7.5599326e-02
   7.7368285e-02
   1.1772963e-01
   1.1929747e-01
   1.6562062e-01
   1.8050093e-01
   1.9830851e-01
   1.9262569e-01
   1.6601023e-01
   1.5086665e-01
   1.2174227e-01
   8.4281248e-02
   6.7235892e-02
   7.5589505e-03
  -9.5650840e-03
  -2.8497024e-02
  -4.4846324e-02
  -4.4045079e-02
  -5.6972002e-02
  -4.0152514e-02
  -7.2549823e-02
  -6.0158756e-02
  -5.4294542e-02
  -5.0716721e-02
  -6.0549279e-02
  -5.2360936e-02
  -6.4291312e-02
  -5.4147502e-02
  -6.5294486e-02
  -5.0343029e-02
  -4.2416860e-02
  -2.3820280e-02
  -3.3726598e-02
  -2.9887813e-02
  -1.5332546e-02
  -3.0736472e-02
  -5.8241863e-02
  -6.8587268e-02
  -8.3599864e-02
  -8.9907409e-02
  -8.1131668e-02
  -9.2363790e-02
  -7.8905650e-02
  -9.7708234e-02
  -7.9757690e-02
  -8.0812756e-02
  -8.6093611e-02
  -9.4042672e-02
  -8.2157669e-02
  -7.9091249e-02
  -7.0497296e-02
  -4.6471830e-02
   9.3498433e-02
   2.9531734e-01
   4.8945233e-01
  -1.1312361e-01
  -5.8798671e-01
  -3.3297903e-01
  -1.5523092e-01
  -1.1131193e-01
  -8.3865508e-02
  -7.3645937e-02
  -9.3017745e-02
  -6.9992399e-02
  -6.9966998e-02
  -5.8162812e-02
  -5.8868914e-02
  -6.6808274e-02
  -5.0302271e-02
  -5.3880529e-02
  -4.7849888e-02
  -2.9300354e-02
  -4.5219749e-02
  -1.1207442e-02
  -3.7410361e-02
  -7.8968665e-03
  -4.4742801e-03
   1.1109106e-02
   1.3231457e-02
   2.8318752e-02
   3.7328644e-02
   7.0555424e-02
   8.1537677e-02
   1.2295308e-01
   1.3376263e-01
   1.7254021e-01
   1.9068279e-01
   1.9787809e-01
   2.1269522e-01
   1.9548368e-01
   1.8326761e-01
   1.5645798e-01
   1.1938302e-01
   8.7989370e-02
   5.6231794e-02
   1.8936561e-02
   1.5808018e-02
  -1.4873859e-02
  -1.2475945e-02
  -3.3789485e-02
  -2.1025648e-02
  -2.9308959e-02
  -2.4442494e-02
  -2.7776736e-02
  -2.3220668e-02
  -3.0772867e-02
  -1.9273089e-02
  -3.3778263e-02
  -2.2787062e-02
  -3.2902682e-02
  -2.5346067e-02
  -1.4718392e-02
  -8.0899862e-03
   6.8024836e-03
  -7.0468238e-03
   4.5417703e-03
   1.0479435e-02
  -6.7268230e-03
  -3.3107864e-02
  -5.1568491e-02
  -6.4771669e-02
  -5.4795500e-02
  -6.1570400e-02
  -5.3481385e-02
  -7.6155480e-02
  -5.9985348e-02
  -6.9407459e-02
  -6.1175963e-02
  -6.8807629e-02
  -5.5864129e-02
  -6.4748147e-02
  -5.4311300e-02
  -5.1319151e-02
   2.4924278e-02
   1.1773417e-01
   2.6824358e-01
   3.3049902e-01
  -5.7648449e-01
  -7.5959857e-01
  -3.1357234e-01
  -1.1861108e-01
  -8.7403753e-02
  -4.3724607e-02
  -6.0032282e-02
  -5.9233281e-02
  -3.8894820e-02
  -5.0301393e-02
  -3.4627957e-02
  -3.0097176e-02
  -4.3029007e-02
  -6.2835472e-04
  -3.3370420e-02
   4.2987580e-03
  -1.0051284e-02
  -6.6590045e-03
   1.2575252e-02
   8.3069247e-03
   2.3489988e-02
   2.9872523e-02
   2.9082553e-02
   4.1940574e-02
   4.3802824e-02
   8.2746859e-02
   9.4995897e-02
   1.1412676e-01
   1.6052352e-01
   1.6037623e-01
   1.9685018e-01
   2.0026566e-01
   2.1013856e-01
   2.1986633e-01
   2.1163302e-01
   1.8240775e-01
   1.6046821e-01
   1.0655141e-01
   9.9443342e-02
   4.2567946e-02
   3.6932048e-02
  -4.8350548e-03
  -8.3218006e-03
  -1.6785483e-02
  -2.6820090e-02
  -2.4335869e-02
  -1.5024986e-02
  -3.2816483e-02
  -1.2916103e-02
  -2.1418828e-02
  -1.9062413e-02
  -1.5894616e-02
  -2.6900209e-02
  -3.9950422e-03
  -3.5312081e-02
  -5.1464060e-03
  -1.2370791e-03
   8.9043255e-03
   3.0115298e-05
   5.0420581e-03
   9.6627097e-03
   1.4028747e-02
  -2.5422667e-02
  -2.5636886e-02
  -5.9161445e-02
  -4.0715471e-02
  -6.1275156e-02
  -4.5740228e-02
  -6.1267178e-02
  -5.8800288e-02
  -5.1760261e-02
  -5.0683520e-02
  -6.1034240e-02
  -5.1857593e-02
  -6.3345357e-02
  -6.1938218e-02
  -5.1494274e-02
   2.9933186e-03
   9.1264946e-02
   1.9022129e-01
   2.7177352e-01
  -3.9335464e-01
  -7.5281336e-01
  -4.0233454e-01
  -1.3856287e-01
  -6.7405989e-02
  -2.8175359e-02
  -3.2483149e-02
  -2.7117048e-02
  -2.2600226e-02
  -1.6626528e-02
  -1.3569769e-02
   2.0127244e-03
  -1.9709192e-03
   2.6485360e-02
   3.9995193e-03
   2.0869065e-02
   2.6347692e-02
   1.4265754e-02
   4.4431985e-02
   4.4567000e-02
   6.0538259e-02
   5.0803537e-02
   6.9148723e-02
   8.8704893e-02
   9.0131261e-02
   1.0925632e-01
   1.4019485e-01
   1.4959221e-01
   1.9220907e-01
   2.0518203e-01
   2.4382030e-01
   2.4991692e-01
   2.6976285e-01
   2.6700692e-01
   2.6575173e-01
   2.2926117e-01
   2.1493841e-01
   1.6542946e-01
   1.4691529e-01
   1.0060531e-01
   8.4033869e-02
   5.4127858e-02
   3.5352210e-02
   3.0472376e-02
   3.0231723e-02
   2.3381438e-02
   1.8384492e-02
   1.9753526e-02
   2.0216923e-02
   2.9532806e-02
   1.8291547e-02
   3.2491390e-02
   1.9784477e-02
   2.0038251e-02
   8.9176130e-03
   2.2926080e-02
   1.7132566e-02
   3.4039005e-02
   2.9507952e-02
   3.8650685e-02
   3.7274706e-02
   4.2072981e-02
   9.2705333e-03
   3.9534525e-03
  -2.6204029e-02
  -1.8200943e-02
  -3.3601213e-02
  -4.0888998e-02
  -3.2717112e-02
  -5.0619393e-02
  -3.4627925e-02
  -4.8761699e-02
  -3.6400079e-02
  -5.3268456e-02
  -3.6162632e-02
  -5.0035005e-02
  -3.4280598e-02
  -2.2634839e-02
   7.4596684e-02
   1.3766536e-01
   2.5274060e-01
  -1.0991597e-01
  -7.7534816e-01
  -5.5722221e-01
  -2.0959788e-01
  -7.9344169e-02
  -4.4714929e-02
  -2.0809545e-02
  -2.0488911e-02
  -1.7354801e-02
  -9.4503965e-03
  -1.9188899e-02
   2.9788588e-03
  -2.0036006e-02
   6.5220250e-03
   9.8553523e-03
  -8.1658004e-03
   2.0533708e-02
  -3.7428649e-03
   1.5610008e-02
   1.3893657e-02
   2.2320189e-02
   1.9429996e-02
   2.6184231e-02
   3.0069830e-02
   5.8134358e-02
   5.2373568e-02
   9.3058072e-02
   9.1187059e-02
   1.4415617e-01
   1.5263310e-01
   1.8248986e-01
   1.9695611e-01
   2.0706739e-01
   2.0871362e-01
   2.1766690e-01
   1.8830162e-01
   1.7185978e-01
   1.1781241e-01
   8.9017078e-02
   5.2391470e-02
   2.3633229e-02
   8.0832623e-04
  -1.7484355e-02
  -2.1882068e-02
  -3.7876913e-02
  -3.2284532e-02
  -3.4661185e-02
  -3.7521849e-02
  -4.2504770e-02
  -3.3213380e-02
  -4.6994346e-02
  -3.0483747e-02
  -4.7286022e-02
  -3.2858473e-02
  -4.8369930e-02
  -4.1878798e-02
  -3.6336151e-02
  -2.2096419e-02
  -2.8120523e-02
  -1.3886385e-02
  -2.1666550e-02
  -1.6343980e-03
  -3.1509774e-02
  -4.2922678e-02
  -6.9017634e-02
  -8.0886179e-02
  -6.7830144e-02
  -8.5805380e-02
  -6.9189133e-02
  -9.3707432e-02
  -8.5918286e-02
  -9.8173121e-02
  -8.5559259e-02
  -9.4554015e-02
  -8.3769822e-02
  -9.5979165e-02
  -8.3251139e-02
  -9.0588637e-02
  -6.3680152e-03
   5.5461302e-02
   1.5782249e-01
   1.9588215e-01
  -6.2283543e-01
  -8.5343314e-01
  -3.9292924e-01
  -1.6184557e-01
  -9.9331166e-02
  -6.0969551e-02
  -5.9672840e-02
  -6.2840517e-02
  -4.6259574e-02
  -5.2864544e-02
  -4.1208873e-02
  -3.4906421e-02
  -4.6813738e-02
  -7.7028186e-03
  -4.5961367e-02
  -7.3402158e-03
  -1.9781093e-02
  -1.0515321e-02
  -4.1764251e-03
  -4.5275909e-03
   7.0386133e-03
   1.5474909e-02
   5.2074091e-03
   4.4625222e-02
   2.6884455e-02
   6.6305388e-02
   7.5169913e-02
   1.1091363e-01
   1.3372668e-01
   1.5770476e-01
   1.8096165e-01
   1.9592622e-01
   2.0143782e-01
   2.0909418e-01
   2.0843824e-01
   1.8216325e-01
   1.3693822e-01
   8.7452028e-02
   6.9434464e-02
   2.4613060e-02
   1.1686374e-02
  -2.3075507e-02
  -3.2324105e-02
  -3.6258295e-02
  -4.4711479e-02
  -4.8778030e-02
  -4.3143289e-02
  -5.6537218e-02
  -3.1923962e-02
  -5.3624896e-02
  -2.4177603e-02
  -3.7715172e-02
  -4.5231100e-02
  -5.2516756e-02
  -4.2657013e-02
  -3.8969566e-02
  -2.2768099e-02
  -2.0000970e-02
  -2.6713417e-02
  -1.7754287e-02
  -1.3167549e-02
   2.4938431e-03
  -3.8595140e-02
  -5.6326488e-02
  -8.6948441e-02
  -5.7905136e-02
  -8.1761367e-02
  -7.8571232e-02
  -8.1973347e-02
  -8.5329934e-02
  -9.2952258e-02
  -7.6684358e-02
  -8.7583744e-02
  -7.2017972e-02
  -8.9588240e-02
  -6.2821874e-02
  -9.0564771e-02
  -5.7670543e-02
   4.5512087e-02
   1.9000037e-01
   3.2530708e-01
   9.4158811e-03
  -6.4988503e-01
  -4.4309734e-01
  -1.8920259e-01
  -1.0004410e-01
  -8.9028085e-02
  -4.8878814e-02
  -6.1461592e-02
  -6.6566800e-02
  -5.5167270e-02
  -6.1840888e-02
  -3.4314697e-02
  -6.0055978e-02
  -3.1674452e-02
  -3.4614054e-02
  -2.5370329e-02
  -2.4646625e-02
  -1.3891931e-02
  -1.1134984e-02
   1.0117195e-03
  -1.4264280e-02
   2.0143556e-02
   1.2416161e-02
   1.4925196e-02
   3.0419915e-02
   5.2135135e-02
   8.0243682e-02
   1.0769733e-01
   1.3542941e-01
   1.9029847e-01
   2.1343588e-01
   2.6041737e-01
   2.6882015e-01
   2.5764626e-01
   2.3140822e-01
   2.0065027e-01
   1.8158950e-01
   1.2585975e-01
   1.0783296e-01
   6.7468997e-02
   4.1865897e-02
   2.1379023e-02
  -7.7241291e-03
  -2.2063968e-02
  -2.7523583e-03
  -2.1573088e-02
   1.5459348e-02
   1.1060428e-01
   2.4758418e-01
   2.9792233e-01
   9.9612883e-02
  -5.8890736e-01
  -4.0636811e-01
  -1.1662889e-01
  -4.2673811e-02
  -5.8424283e-02
  -4.3539227e-02
  -4.8834030e-02
  -3.8901962e-02
  -2.2642485e-02
  -5.1039649e-02
   5.2207813e-03
  -3.5944433e-02
  -1.8187081e-02
  -1.3145874e-02
  -1.2906248e-02
   9.2962993e-03
   9.7598860e-04
   1.7374631e-02
   3.7253954e-02
   1.4686896e-02
   4.8606001e-02
   3.7905814e-02
   7.3188592e-02
   9.7112464e-02
   1.2638716e-01
   1.5845621e-01
   1.6482158e-01
   1.8887598e-01
   2.0829760e-01
   2.0360112e-01
   2.1884678e-01
   2.0675999e-01
   1.8587665e-01
   1.5937651e-01
   1.0134773e-01
   9.4237132e-02
   4.8807068e-02
   4.1698052e-02
   2.9332600e-02
   1.3232501e-02
   1.4049079e-02
   5.2046398e-03
   2.7112524e-03
   1.4714231e-02
  -9.6418239e-03
   1.4016404e-02
  -1.7727373e-02
   3.4788956e-03
  -4.6349148e-03
  -2.6231013e-03
  -1.0637429e-03
  -5.8476413e-03
  -1.0666291e-02
  -1.3577795e-02
  -6.7120103e-03
  -9.9166898e-03
  -1.4861128e-02
  -1.9827299e-02
  -1.2654954e-02
  -3.0209108e-02
  -4.9595985e-03
  -2.3317811e-02
  -1.3995257e-02
  -2.2259626e-02
  -1.8625646e-02
  -1.4762694e-02
  -7.2388424e-03
  -1.3167147e-02
  -1.8007940e-03
  -2.2148101e-02
   4.0671081e-04
  -2.0900525e-02
  -7.4819383e-03
  -1.6497185e-02
  -2.5424170e-02
  -1.0173790e-02
  -2.4121877e-02
  -1.2412416e-02
  -2.0899657e-02
  -1.4462057e-02
  -1.9841125e-02
  -8.4439646e-03
  -1.6732970e-02
   4.2727430e-03
   1.0957811e-02
   2.0992648e-02
   1.1949086e-02
   3.8411127e-02
   3.0426108e-02
   1.2201222e-02
  -8.9166999e-03
  -1.6902980e-02
  -3.0815957e-02
  -1.9764846e-02
  -3.2287804e-02
  -2.8773982e-02
  -5.1398785e-02
  -3.5708788e-02
  -3.4551356e-02
  -3.6417457e-02
  -4.4092752e-02
  -3.6016628e-02
  -4.0104902e-02
  -1.9765429e-02
   6.1775641e-02
   1.9434337e-01
   4.0062718e-01
   4.9033185e-01
  -3.9058151e-01
  -6.5992690e-01
  -3.2932480e-01
  -1.5226154e-01
  -9.6420065e-02
  -4.7914443e-02
  -4.8350514e-02
  -6.0256381e-02
  -2.2643990e-02
  -4.8814472e-02
  -9.0908689e-03
  -3.2948542e-02
  -1.9551961e-02
  -8.9681447e-03
  -1.7027814e-02
  -5.3364832e-03
  -7.5424327e-03
  -1.4047402e-02
   1.9635212e-02
   4.1800205e-03
   1.4140884e-02
   2.1639526e-02
   1.2317676e-02
   4.7909745e-02
   2.5329194e-02
   6.7890537e-02
   7.1267025e-02
   8.8037766e-02
   1.1602027e-01
   1.3121723e-01
   1.6194892e-01
   1.7614529e-01
   1.7843385e-01
   2.0501826e-01
   1.8737634e-01
   2.1109983e-01
   1.7673377e-01
   1.7361049e-01
   1.3967662e-01
   1.0844143e-01
   8.5011787e-02
   5.7155100e-02
   1.8394791e-02
   1.8231283e-02
  -2.1134559e-02
  -6.5217318e-03
  -2.8492371e-02
  -3.1717754e-02
  -2.3743617e-02
  -4.0356953e-02
  -1.8369038e-02
  -3.3491003e-02
  -1.2565281e-02
  -2.4436088e-02
  -1.5539345e-02
  -2.4305683e-02
   5.7266676e-03
   1.9489208e-03
   1.4911067e-02
  -6.1373901e-03
   1.9867110e-02
   5.5315197e-03
   1.7961166e-03
  -3.5836060e-02
  -5.1163729e-02
  -6.1157939e-02
  -5.9904137e-02
  -6.4545955e-02
  -5.7108713e-02
  -8.1486946e-02
  -6.7597598e-02
  -8.0411498e-02
  -7.5140857e-02
  -6.8877478e-02
  -8.6247612e-02
  -7.4462887e-02
  -8.5791301e-02
  -5.6540489e-02
   1.3246273e-02
   9.2375622e-02
   2.0714738e-01
   2.5351668e-01
  -6.3354463e-01
  -8.0712944e-01
  -3.4110557e-01
  -1.2189423e-01
  -9.9586761e-02
  -4.2522710e-02
  -6.3301445e-02
  -5.7409485e-02
  -3.8709188e-02
  -5.8116947e-02
  -3.5169404e-02
  -3.4248752e-02
  -3.7677830e-02
  -6.5902630e-03
  -2.7697736e-02
  -1.6902391e-02
  -6.1480792e-03
  -1.7321785e-02
   1.5438622e-02
  -1.2614362e-02
   2.5847327e-02
   2.2454304e-02
   3.2350340e-02
   4.2685959e-02
   6.1766281e-02
   7.4239093e-02
   1.0557714e-01
   1.1128595e-01
   1.7016859e-01
   1.6621639e-01
   2.1716345e-01
   2.1423713e-01
   2.3093194e-01
   2.2325709e-01
   2.0639747e-01
   1.8559590e-01
   1.5863797e-01
   1.0541453e-01
   8.1389249e-02
   3.0657046e-02
   2.3559216e-02
  -8.2254254e-03
  -2.1166518e-02
  -2.1016977e-03
  -3.4516817e-02
  -1.4710697e-02
  -3.4689370e-02
  -3.2215562e-02
  -2.9948935e-02
  -3.0347543e-02
  -3.6816554e-02
  -3.1626380e-02
  -3.8633692e-02
  -2.7023506e-02
  -4.6681671e-02
  -1.4495784e-02
  -3.2814006e-02
  -1.5574002e-02
  -9.7445038e-03
  -7.3829224e-03
   2.6808190e-03
  -1.8636138e-02
  -5.1840230e-02
  -5.2263280e-02
  -6.8304307e-02
  -5.4872080e-02
  -5.1307748e-02
  -5.8325501e-02
  -7.4560802e-02
  -8.5000112e-02
  -6.2421294e-02
  -7.2634874e-02
  -6.5946459e-02
  -6.2227046e-02
  -5.1542282e-02
  -6.4372843e-02
  -5.5060342e-02
  -9.1591249e-03
   1.1370465e-01
   2.5906419e-01
   3.2850623e-01
  -3.5929341e-01
  -6.2458868e-01
  -2.7404308e-01
  -9.4539509e-02
  -7.9672787e-02
  -4.4538239e-02
  -5.4892098e-02
  -5.2188884e-02
  -4.2214755e-02
  -5.0540712e-02
  -2.2999575e-02
  -1.7029260e-02
  -1.9002992e-02
  -2.9974811e-02
  -3.2416736e-02
  -1.5672978e-02
  -9.2115944e-03
  -2.6129500e-02
   6.1690354e-03
  -1.3524172e-02
   1.6223367e-02
   8.0459663e-03
   1.7153344e-02
   2.2688947e-02
   3.9501511e-02
   5.8122185e-02
   8.5240163e-02
   8.9775535e-02
   1.3906024e-01
   1.3291011e-01
   1.7987382e-01
   1.8268771e-01
   2.1773991e-01
   2.3085485e-01
   2.0249552e-01
   1.7222966e-01
   1.5097310e-01
   1.1174062e-01
   8.3281846e-02
   5.0042031e-02
   2.0147917e-02
   3.0052720e-03
  -1.5618116e-02
  -1.3081920e-04
  -4.1474236e-02
  -3.8045722e-02
  -3.9904243e-02
  -2.2318688e-02
  -2.8071462e-02
  -2.3793124e-02
  -4.0103801e-02
  -2.7152147e-02
  -3.4326550e-02
  -1.5463724e-02
  -2.5993043e-02
  -1.7178404e-02
  -1.9543642e-02
  -6.1488071e-03
   2.0557886e-03
   7.2124574e-03
   2.0259373e-02
  -6.0925533e-04
  -3.2534588e-02
  -4.5183225e-02
  -5.4061518e-02
  -6.1662899e-02
  -5.3485256e-02
  -6.9100055e-02
  -6.2596980e-02
  -7.5819331e-02
  -5.3835664e-02
  -7.9814214e-02
  -7.6052851e-02
  -7.9927711e-02
  -5.2396765e-02
  -7.0430110e-02
  -6.1909159e-02
  -4.3651271e-02
   1.2043764e-01
   3.2272933e-01
   5.5507477e-01
  -5.1493364e-02
  -5.6084977e-01
  -3.3843500e-01
  -1.5939568e-01
  -1.2697843e-01
  -9.9802957e-02
  -8.4501448e-02
  -9.0501867e-02
  -7.5977418e-02
  -8.7497054e-02
  -7.6264972e-02
  -5.6669616e-02
  -5.6095322e-02
  -5.7821559e-02
  -6.3800602e-02
  -5.7419180e-02
  -3.3509483e-02
  -5.1557392e-02
  -2.0491125e-02
  -3.9357781e-02
  -1.3773709e-02
  -2.5050255e-02
  -1.7108037e-02
   6.8878572e-03
   1.5410374e-02
   2.9380545e-02
   7.2695013e-02
   7.2879356e-02
   1.1466369e-01
   1.1948382e-01
   1.4869633e-01
   1.7083360e-01
   1.8283326e-01
   2.0781085e-01
   1.8969385e-01
   1.7805598e-01
   1.5026250e-01
   1.1327399e-01
   8.1777831e-02
   5.4089726e-02
   2.2365347e-02
   1.8490820e-02
  -2.2020835e-02
  -1.0255517e-02
  -3.6665226e-02
  -2.3691177e-02
  -3.3116154e-02
  -2.7409321e-02
  -3.1730222e-02
  -2.2270766e-02
  -2.9447604e-02
  -3.3647955e-02
  -2.3712596e-02
  -3.1716641e-02
  -2.3413404e-02
  -3.9828899e-02
  -1.9692328e-02
  -9.6202492e-03
   7.8535407e-03
  -2.3665016e-02
   3.7487130e-03
   5.1273986e-03
  -8.8370527e-03
  -3.3500631e-02
  -4.3622195e-02
  -5.6318204e-02
  -5.0655691e-02
  -6.9196063e-02
  -5.4658317e-02
  -7.3734408e-02
  -6.6758244e-02
  -6.6633064e-02
  -5.4200298e-02
  -6.5124556e-02
  -6.4083171e-02
  -6.7164249e-02
  -5.1872019e-02
  -4.9584861e-02
   1.8003038e-02
   1.2859840e-01
   3.2957810e-01
   4.1296260e-01
  -4.7571760e-01
  -7.0080707e-01
  -3.2100537e-01
  -1.2827989e-01
  -8.9284389e-02
  -4.3144391e-02
  -5.8094605e-02
  -4.7258305e-02
  -2.8361552e-02
  -4.2232288e-02
  -3.4127073e-02
  -2.3249962e-02
  -3.6021650e-02
   4.9565278e-03
  -3.0568694e-02
   4.9701102e-03
  -8.2188383e-03
  -4.5877049e-03
   1.3228750e-02
   6.1727741e-03
   1.9305774e-02
   2.6804631e-02
   2.6325509e-02
   3.7772346e-02
   4.1720970e-02
   7.4009864e-02
   9.1949526e-02
   1.0676529e-01
   1.5176765e-01
   1.5815294e-01
   1.9378236e-01
   2.0721342e-01
   2.1814372e-01
   2.2185802e-01
   2.1452966e-01
   1.9479139e-01
   1.7314316e-01
   1.1986104e-01
   1.1184770e-01
   5.6185847e-02
   4.9899362e-02
   1.3300297e-02
   8.5109240e-04
  -8.8338448e-03
  -1.7711089e-02
  -1.5410957e-02
  -6.4121685e-03
  -3.5229940e-03
  -8.2478270e-03
  -7.1952626e-03
  -9.4333342e-03
   4.0919438e-03
  -1.2272638e-02
   6.8394448e-03
  -2.5544090e-02
   5.6695299e-03
   9.5912150e-03
   1.9385414e-02
   1.1730685e-02
   1.0972376e-02
   1.6364128e-02
   2.5725892e-02
  -3.9554041e-03
  -1.2667372e-02
  -4.2442098e-02
  -3.2658878e-02
  -4.8332794e-02
  -3.8189694e-02
  -5.2026370e-02
  -5.5999558e-02
  -5.7174046e-02
  -5.1910206e-02
  -6.2023500e-02
  -5.1407866e-02
  -5.4709045e-02
  -5.5735822e-02
  -5.6155127e-02
  -2.6265845e-02
   6.7811917e-02
   1.6062526e-01
   2.9799201e-01
  -4.4656151e-02
  -7.4161015e-01
  -5.2231226e-01
  -2.1354040e-01
  -8.6763586e-02
  -5.8321760e-02
  -3.4651787e-02
  -3.9511250e-02
  -3.9403040e-02
  -2.5328910e-02
  -5.0318900e-02
  -9.7364551e-03
  -2.2274435e-02
  -7.7069541e-03
  -4.9217844e-03
  -2.5505598e-03
   1.0969290e-02
   9.8799706e-03
   1.3810758e-02
   2.1412417e-02
   1.9616821e-02
   2.7309712e-02
   3.1547408e-02
   3.0811511e-02
   5.7265778e-02
   6.1777639e-02
   9.8311890e-02
   1.0332368e-01
   1.4715649e-01
   1.5899369e-01
   1.7912354e-01
   2.0425776e-01
   2.1620431e-01
   2.1425204e-01
   2.1592760e-01
   1.8724670e-01
   1.8609623e-01
   1.2950246e-01
   1.0153145e-01
   5.7866950e-02
   2.5249953e-02
   7.0413969e-03
  -1.3286004e-02
  -2.2161976e-02
  -2.5732985e-02
   4.0346597e-02
   1.8108661e-01
   2.1000542e-01
   1.6039765e-01
  -4.1047678e-01
  -8.3277398e-01
  -4.3237050e-01
  -1.2190336e-01
  -4.7590006e-02
  -4.9469464e-02
  -3.1016133e-02
  -4.3082506e-02
  -2.3748614e-02
  -4.0298752e-02
  -1.7750195e-02
  -1.9345023e-02
  -1.5566121e-02
  -1.2668556e-02
  -3.0290898e-03
  -1.0642018e-02
   2.1135668e-03
   1.4229760e-03
   4.4514131e-03
   1.3231850e-02
   1.1701294e-02
   4.3042487e-02
   5.3406432e-02
   8.0966433e-02
   9.9460269e-02
   1.3355358e-01
   1.5465829e-01
   1.7540287e-01
   1.8281291e-01
   2.0140756e-01
   1.9595977e-01
   2.0647059e-01
   1.6331639e-01
   1.5465439e-01
   1.0399516e-01
   7.8489842e-02
   3.7859607e-02
   2.0413309e-02
  -4.1787475e-03
  -1.4441372e-02
  -2.0586103e-02
  -1.5732913e-02
  -3.2858925e-02
  -2.3189706e-02
  -3.7490116e-02
  -3.8725969e-02
  -3.4791737e-02
  -5.0280320e-02
  -3.2594640e-02
  -5.5095546e-02
  -3.7559197e-02
  -5.3171739e-02
  -5.7982980e-02
  -6.6695442e-02
  -5.3281838e-02
  -6.0883653e-02
  -5.1921213e-02
  -6.6328794e-02
  -5.0298023e-02
  -6.1512175e-02
  -5.4231445e-02
  -6.0710699e-02
  -4.4707987e-02
  -5.8554204e-02
  -5.5001571e-02
  -5.7992717e-02
  -4.8845209e-02
  -5.8222337e-02
  -4.2462910e-02
  -5.3200579e-02
  -4.6461242e-02
  -6.2336934e-02
  -6.6320332e-02
  -4.6932567e-02
  -6.5529646e-02
  -4.1262354e-02
  -5.0669898e-02
  -4.4395011e-02
  -6.0834919e-02
  -3.9144149e-02
  -4.4693161e-02
  -3.9063726e-02
  -5.3295041e-02
  -3.9369610e-02
  -3.7798019e-02
  -1.3529845e-02
  -1.2896900e-02
   3.0162015e-03
  -7.8140737e-03
   1.8335966e-02
   8.2629668e-03
  -1.0643510e-02
  -4.0857112e-02
  -5.0870368e-02
  -3.5836175e-02
  -4.4948730e-02
  -3.5332443e-02
  -4.9526120e-02
  -4.4394300e-02
  -5.9458529e-02
  -3.8951778e-02
  -4.4039517e-02
  -3.3237383e-02
  -4.8279089e-02
  -3.3214110e-02
  -4.2520474e-02
   9.4080049e-02
   2.5541284e-01
   5.2416222e-01
   2.8108976e-01
  -4.6997306e-01
  -5.3504327e-01
  -1.8757727e-01
  -1.1532778e-01
  -7.0905998e-02
  -4.5885195e-02
  -5.5468506e-02
  -6.5158977e-02
  -4.4110219e-02
  -5.3381839e-02
  -1.5927732e-02
  -2.4099611e-02
  -2.8352392e-02
  -1.9109262e-02
  -4.5347811e-02
  -6.3614673e-03
  -1.2467034e-02
  -1.9584123e-03
  -8.9513559e-03
  -8.2864650e-03
  -5.6532438e-03
   8.6685855e-03
   9.1407650e-03
   4.1276318e-02
   2.8451823e-02
   6.9506090e-02
   6.0109614e-02
   9.0285729e-02
   9.6646921e-02
   1.2992724e-01
   1.5470087e-01
   1.7662580e-01
   1.8603498e-01
   2.0282615e-01
   2.0150743e-01
   1.9621463e-01
   1.6821407e-01
   1.5729547e-01
   1.2938444e-01
   9.3257992e-02
   8.1356792e-02
   4.5063314e-02
   2.3080716e-02
  -1.7170452e-04
  -2.0396420e-02
  -1.8669224e-02
  -1.4303245e-02
  -2.5922035e-02
  -2.0149088e-02
  -3.4080758e-02
  -1.8116888e-02
  -3.3174879e-02
  -1.0500157e-02
  -1.9308431e-02
  -1.7754101e-02
  -1.3103377e-02
   3.0504394e-03
   1.0162015e-02
   6.6911406e-03
   1.2725272e-02
   8.2267964e-03
   2.3633644e-02
  -8.1595888e-03
  -3.2173143e-02
  -5.1721509e-02
  -3.5807557e-02
  -6.0147290e-02
  -5.3255105e-02
  -5.6956819e-02
  -5.5272735e-02
  -6.0624761e-02
  -5.4411488e-02
  -6.2337506e-02
  -6.1251165e-02
  -6.9553964e-02
  -5.5123456e-02
  -6.8353695e-02
  -3.7473981e-02
   4.2448046e-02
   2.0872343e-01
   4.3653226e-01
   1.5759431e-01
  -6.0234752e-01
  -4.5210499e-01
  -2.0921546e-01
  -9.2090366e-02
  -7.7122944e-02
  -4.2360434e-02
  -6.1080946e-02
  -5.1375187e-02
  -3.6858552e-02
  -5.9517203e-02
  -1.8791008e-02
  -3.4421194e-02
  -1.0904594e-02
  -1.6972476e-02
  -1.7727704e-02
  -4.3480364e-03
  -2.9835675e-03
   4.3422223e-03
   1.8109403e-02
   3.7220174e-03
   3.9951879e-02
   1.3759091e-02
   4.4249846e-02
   4.8068328e-02
   7.0070101e-02
   8.9160685e-02
   9.9999377e-02
   1.2891952e-01
   1.6338687e-01
   1.7120783e-01
   2.0861542e-01
   2.1118246e-01
   2.1507432e-01
   2.2817008e-01
   1.9853246e-01
   1.8883397e-01
   1.4253498e-01
   1.2111585e-01
   7.8725950e-02
   4.4627061e-02
   2.3393119e-02
   8.1073487e-03
  -8.8496206e-03
  -1.8765710e-03
  -1.4857562e-02
   2.9759594e-03
  -1.6300423e-02
  -3.7380013e-03
  -1.6615053e-02
  -9.1500491e-03
  -1.7061501e-02
  -1.5610043e-02
  -1.8761448e-02
  -1.1227574e-02
  -2.3631609e-02
  -7.2877741e-03
  -5.3057225e-03
  -3.1050970e-03
   8.2299307e-03
  -2.5039045e-03
   1.7334655e-02
   5.9543564e-04
  -7.4252332e-03
  -3.6465217e-02
  -4.1780013e-02
  -4.7629103e-02
  -4.4064418e-02
  -5.2543663e-02
  -5.6282152e-02
  -6.1645359e-02
  -4.7588159e-02
  -5.8463680e-02
  -5.2620694e-02
  -6.5954995e-02
  -5.1445177e-02
  -5.2455309e-02
  -4.7987610e-02
   8.7182044e-04
   1.0283634e-01
   2.2712842e-01
   3.0704306e-01
  -3.1590494e-01
  -7.0806957e-01
  -3.9425492e-01
  -1.5685572e-01
  -7.5794181e-02
  -5.4938308e-02
  -3.8659338e-02
  -5.8478157e-02
  -2.6039762e-02
  -4.9199392e-02
  -2.9859535e-02
  -2.4308426e-02
  -2.2046244e-02
  -2.1708651e-02
  -1.3789116e-02
  -1.4413916e-02
   5.4689944e-04
  -1.1426465e-02
   1.7758271e-02
   1.1761873e-02
   2.1012862e-02
   2.0131246e-02
   2.9346908e-02
   4.7322913e-02
   5.2344955e-02
   6.5754753e-02
   9.9600196e-02
   1.0528682e-01
   1.4156744e-01
   1.6235903e-01
   1.8640666e-01
   2.0425505e-01
   2.0627463e-01
   2.2639115e-01
   2.0374282e-01
   1.9680114e-01
   1.5996928e-01
   1.3241590e-01
   9.1671271e-02
   5.9468166e-02
   2.6760195e-02
   1.9707424e-02
  -1.7152246e-02
  -1.4164265e-02
  -4.0409799e-02
  -4.3058403e-02
  -5.0998247e-02
  -5.1648075e-02
  -4.9734451e-02
  -5.0193317e-02
  -3.8445124e-02
  -1.6883667e-03
   8.8299100e-03
   5.5328937e-04
  -4.7407237e-04
  -7.4070879e-03
  -1.6076043e-02
  -4.0773141e-02
  -2.9936362e-02
  -3.9992802e-02
  -3.2498892e-02
  -3.6569035e-02
   6.2157217e-02
   2.1735970e-01
   3.2991825e-01
   3.3750002e-01
  -4.0236157e-01
  -7.6792433e-01
  -4.0488473e-01
  -1.5379740e-01
  -7.8543678e-02
  -5.1890985e-02
  -5.2114353e-02
  -6.4280621e-02
  -4.2973761e-02
  -5.7104609e-02
  -4.7131071e-02
  -3.2919277e-02
  -4.2981942e-02
  -1.4340829e-02
  -3.6023501e-02
  -2.7624929e-03
  -1.7684134e-02
  -7.3705362e-03
  -4.0438266e-04
   9.9399188e-03
   2.1585979e-02
   3.2402727e-02
   3.2827693e-02
   6.8783375e-02
   5.5981994e-02
   1.0052938e-01
   1.1226290e-01
   1.4822699e-01
   1.7757748e-01
   1.9203747e-01
   2.0515782e-01
   2.1760978e-01
   2.0428699e-01
   2.1232061e-01
   1.7329699e-01
   1.5064210e-01
   1.0299278e-01
   6.0433064e-02
   3.6601800e-02
   3.9132913e-03
  -1.0082982e-02
  -3.2392179e-02
  -2.5220917e-02
  -2.8834548e-02
  -3.5995254e-02
  -4.0789825e-02
  -3.7349487e-02
  -5.4737122e-02
  -3.4767219e-02
  -5.0495167e-02
  -4.0963211e-02
  -5.7580446e-02
  -4.9495442e-02
  -5.9975341e-02
  -5.5326348e-02
  -6.1344569e-02
  -5.7460386e-02
  -5.4901773e-02
  -5.9661641e-02
  -5.5781733e-02
  -6.6029537e-02
  -5.2888151e-02
  -6.9523666e-02
  -5.0232044e-02
  -6.5629807e-02
  -5.1124475e-02
  -6.3163538e-02
  -5.4288271e-02
  -5.5764285e-02
  -5.0319915e-02
  -5.1547100e-02
  -2.3738246e-02
  -2.4060338e-02
  -6.1673876e-03
  -2.0248881e-02
   3.2422048e-03
  -3.5889822e-03
   1.2794599e-03
  -3.1104217e-02
  -3.9938755e-02
  -5.1957303e-02
  -4.8352338e-02
  -4.4569843e-02
  -5.1037501e-02
  -6.0293900e-02
  -5.2400834e-02
  -4.3388869e-02
  -5.4299343e-02
  -4.6896114e-02
  -5.5045719e-02
  -4.7460079e-02
  -5.3648688e-02
   4.2937059e-03
   1.1569362e-01
   2.3871071e-01
   3.3577490e-01
  -1.6473350e-01
  -7.2844513e-01
  -4.6355105e-01
  -2.0351276e-01
  -8.2272037e-02
  -5.7243188e-02
  -2.6341413e-02
  -4.3066000e-02
  -1.2036957e-02
  -3.1311243e-02
  -1.7035643e-02
  -2.5846567e-03
  -2.6313207e-02
   9.8466682e-04
  -1.0632466e-02
   2.9875490e-03
   1.4390682e-03
   9.1529388e-03
   5.4907119e-03
   1.4259022e-02
   7.9250723e-03
   2.5929320e-02
   1.4296648e-02
   4.4645595e-02
   3.9219844e-02
   6.2670228e-02
   7.9866171e-02
   9.4829976e-02
   1.1854456e-01
   1.4892244e-01
   1.6277411e-01
   1.9893940e-01
   1.9538911e-01
   2.2797982e-01
   2.1920981e-01
   2.2327568e-01
   2.0365943e-01
   1.7650459e-01
   1.4775265e-01
   1.1476663e-01
   7.8363621e-02
   5.8109800e-02
   3.1399450e-02
   2.2044361e-02
   9.0799515e-03
  -1.1667755e-02
  -3.2339859e-03
  -1.8380046e-02
  -8.7149816e-03
  -1.1628182e-02
  -6.6589898e-03
  -8.9141286e-03
   1.3371121e-03
   1.0214507e-03
   8.0663333e-03
  -1.1550698e-02
   5.3231504e-03
   6.1725777e-03
   2.5732278e-02
   7.7714291e-03
   1.8023813e-02
   2.4726280e-02
   1.6960112e-02
   1.1409281e-04
  -2.2077565e-02
  -3.6961191e-02
  -4.0658583e-02
  -3.8546738e-02
  -4.5327631e-02
  -3.8012263e-02
  -5.6811031e-02
  -4.6381071e-02
  -5.8675968e-02
  -4.5689800e-02
  -6.3321831e-02
  -5.2232727e-02
  -5.2051097e-02
  -4.3598937e-02
  -3.1805881e-02
   5.4612178e-02
   1.1708460e-01
   2.3073588e-01
  -5.5851900e-02
  -7.5260236e-01
  -5.7644209e-01
  -2.3670462e-01
  -8.9298639e-02
  -5.0460449e-02
  -2.3857901e-02
  -2.9827341e-02
  -9.4848311e-03
  -2.3372207e-02
  -2.0307661e-02
  -5.0006467e-03
  -9.0656225e-03
  -5.3728783e-03
   1.5658647e-02
  -4.3327049e-03
   2.8357800e-02
   1.5728500e-03
   2.4153557e-02
   1.9772427e-02
   1.6612572e-02
   3.1555221e-02
   3.6990097e-02
   3.8803331e-02
   6.8398338e-02
   6.2207686e-02
   1.0026513e-01
   1.0667764e-01
   1.5323955e-01
   1.6280058e-01
   1.7752546e-01
   2.0879554e-01
   2.2253160e-01
   2.4262426e-01
   2.2804364e-01
   2.0318380e-01
   1.9335676e-01
   1.3917709e-01
   1.0727260e-01
   7.7488894e-02
   2.9222048e-02
   2.6449921e-02
  -1.0596162e-02
   1.0569162e-03
  -1.8354269e-02
  -2.0839250e-02
  -2.4950060e-02
  -3.0253459e-02
  -3.4704319e-02
  -1.4280021e-02
  -3.5332675e-02
  -2.1048540e-02
  -4.5181406e-02
  -2.9954878e-02
  -4.4760163e-02
  -4.0269760e-02
  -3.7249109e-02
  -2.0279843e-02
  -2.0467732e-02
  -1.5167978e-02
  -1.5700015e-02
  -1.2245410e-02
   3.9348959e-03
  -1.9797433e-02
  -3.5546116e-02
  -6.0807840e-02
  -4.2658049e-02
  -7.0755323e-02
  -6.0837832e-02
  -7.1391619e-02
  -7.0429293e-02
  -8.3523039e-02
  -6.6321450e-02
  -7.1069255e-02
  -6.1811881e-02
  -8.5620880e-02
  -5.9396036e-02
  -6.6337534e-02
  -2.6915504e-02
   6.5090983e-02
   2.0762575e-01
   3.4811947e-01
  -1.0717277e-02
  -6.3193211e-01
  -4.1422672e-01
  -1.7609480e-01
  -9.0016986e-02
  -8.4194402e-02
  -5.1221851e-02
  -6.8862951e-02
  -5.9837384e-02
  -4.5946461e-02
  -6.2765233e-02
  -3.3184128e-02
  -5.8090875e-02
  -2.0906663e-02
  -3.6210236e-02
  -2.7426428e-02
  -1.4936529e-02
  -2.6743039e-02
  -1.7214348e-02
  -1.7739711e-03
  -1.1766550e-02
   1.3459655e-02
   3.5618719e-03
   3.2104301e-02
   3.7535957e-02
   2.4117313e-02
   6.6119035e-02
   7.4312934e-02
   1.1129004e-01
   1.3612822e-01
   1.5950820e-01
   1.9485933e-01
   1.9994600e-01
   1.9637793e-01
   2.1040188e-01
   1.8583313e-01
   1.7459440e-01
   1.2048918e-01
   9.6531837e-02
   5.5276498e-02
   4.0768562e-02
   8.8247868e-03
  -4.9755519e-03
  -1.9493699e-02
  -2.0154802e-02
  -3.9693877e-02
  -2.2403549e-02
  -3.9966840e-02
  -2.5210601e-02
  -2.1152688e-02
  -3.3935929e-02
  -1.9024784e-02
  -3.4378797e-02
  -2.5723659e-02
  -4.1529238e-02
  -3.4106561e-02
  -4.4526029e-02
  -2.4929344e-02
  -1.1631970e-02
  -1.5775344e-03
  -1.4548604e-02
   4.7103865e-03
  -1.4313209e-02
  -2.1639905e-02
  -4.7037403e-02
  -5.4327419e-02
  -6.5839172e-02
  -5.4918716e-02
  -6.2174532e-02
  -5.7631551e-02
  -7.9521456e-02
  -6.6483945e-02
  -7.0233376e-02
  -6.2333011e-02
  -6.8475715e-02
  -6.4682689e-02
  -6.6947199e-02
  -5.5620238e-02
  -2.8427903e-02
   7.8976978e-02
   2.0811243e-01
   3.6556355e-01
  -9.2761402e-02
  -7.1929598e-01
  -4.8156855e-01
  -1.9942960e-01
  -8.0207584e-02
  -6.1516343e-02
  -2.8584591e-02
  -6.0263719e-02
  -2.8355025e-02
  -3.9815793e-02
  -3.0944666e-02
  -1.5519267e-02
  -1.4414413e-02
  -9.2678780e-03
  -3.4483739e-04
  -5.6554861e-03
   2.3238342e-02
  -3.6443560e-03
   2.4531906e-02
   2.4151304e-02
   2.5112314e-02
   4.1337465e-02
   1.7580770e-02
   4.7985503e-02
   5.8756992e-02
   6.5532731e-02
   9.4252296e-02
   1.0792482e-01
   1.3725116e-01
   1.6291437e-01
   1.8551024e-01
   2.2316275e-01
   2.0886187e-01
   2.3625348e-01
   2.2329233e-01
   2.1142883e-01
   1.8254460e-01
   1.5465446e-01
   1.1140439e-01
   8.7989615e-02
   4.1576964e-02
   3.1662779e-02
  -7.8045034e-04
   6.1810698e-04
  -1.7917377e-02
  -9.0562164e-03
   3.3704532e-04
  -2.0151372e-02
  -6.0548905e-03
  -1.2816589e-02
  -4.1931324e-03
  -1.0486947e-02
  -5.2904161e-03
  -1.6373016e-02
  -8.2541948e-03
  -2.4272952e-02
  -6.2681641e-03
  -5.8050536e-03
   1.3232509e-02
  -3.5931674e-03
   1.5060696e-02
   1.3403589e-02
   1.9392274e-02
  -7.0974138e-03
  -2.3466665e-02
  -5.0032803e-02
  -4.2026919e-02
  -5.5922387e-02
  -4.3024309e-02
  -5.9037788e-02
  -6.5085189e-02
  -5.3361354e-02
  -6.0353494e-02
  -4.4241001e-02
  -5.9121822e-02
  -4.5634963e-02
  -5.3754121e-02
  -4.5427525e-02
  -2.5591373e-02
   7.3743676e-02
   1.6781126e-01
   2.8915146e-01
  -6.5857023e-02
  -7.3831001e-01
  -5.3205515e-01
  -2.0396729e-01
  -8.2577529e-02
  -5.0593356e-02
  -3.3510357e-02
  -4.5359127e-02
  -3.7117564e-02
  -2.7495730e-02
  -3.9848416e-02
  -5.3679317e-03
  -3.9231260e-02
  -1.3218248e-02
  -8.4073281e-03
  -2.8183394e-02
   1.9364726e-03
  -8.2353060e-03
   1.1230304e-02
   8.5764185e-04
   1.1976584e-02
   2.0992488e-02
   2.2220073e-02
   3.5161259e-02
   5.0498520e-02
   5.2079407e-02
   9.4451269e-02
   9.2717716e-02
   1.3413790e-01
   1.4982172e-01
   1.8230976e-01
   1.9855402e-01
   2.1312078e-01
   2.2369446e-01
   2.2523599e-01
   1.9305755e-01
   1.8321917e-01
   1.3418591e-01
   1.0883794e-01
   6.9888241e-02
   3.8495644e-02
   1.7144211e-02
  -5.8637636e-03
  -1.2131725e-02
  -2.5595280e-02
  -2.7121547e-02
  -2.8590339e-02
  -2.1277338e-02
  -3.2307357e-02
  -1.6442427e-02
  -3.1876917e-02
  -1.4171728e-02
  -3.1334406e-02
  -1.7522807e-02
  -3.1772525e-02
  -2.1866837e-02
  -2.9705377e-02
  -6.6990132e-03
  -7.8782897e-03
  -1.7949764e-03
  -1.2289736e-02
   9.9463098e-03
   8.3490892e-03
  -7.3944236e-03
  -3.7116791e-02
  -5.1995254e-02
  -5.5206819e-02
  -6.1674570e-02
  -5.3436249e-02
  -6.7165689e-02
  -6.2509675e-02
  -7.5297340e-02
  -6.6857944e-02
  -7.3742245e-02
  -6.2430786e-02
  -8.2464367e-02
  -5.6146172e-02
  -7.1582220e-02
  -3.4507143e-02
   3.5264855e-02
   1.2215990e-01
   2.2153244e-01
  -9.7174348e-02
  -7.7690331e-01
  -5.6053875e-01
  -2.4506722e-01
  -9.0008457e-02
  -7.1182185e-02
  -2.7333408e-02
  -5.8573322e-02
  -5.2201176e-02
  -3.0812553e-02
  -4.8906941e-02
  -9.6653294e-03
  -3.7551953e-02
  -7.7081169e-03
  -1.6336623e-02
  -7.9431440e-03
   3.8514380e-03
   3.4206002e-03
   6.7237729e-03
   1.8326326e-02
   7.7030556e-03
   3.7735718e-02
   1.9159230e-02
   4.6094883e-02
   5.2727546e-02
   6.8364853e-02
   9.1388989e-02
   1.1929323e-01
   1.3105951e-01
   1.7181100e-01
   1.8375863e-01
   2.2593595e-01
   2.1968888e-01
   2.3630399e-01
   2.2687088e-01
   2.1013580e-01
   1.8579352e-01
   1.4582594e-01
   1.1150063e-01
   7.7094782e-02
   4.0470195e-02
   2.0187713e-02
   6.0889108e-04
  -1.8677242e-02
  -1.4004622e-02
  -3.9078953e-02
  -1.6047635e-02
  -3.9055866e-02
  -1.9084186e-02
  -3.4349616e-02
  -2.8558117e-02
  -3.1818003e-02
  -2.8478149e-02
  -3.9272898e-02
  -3.4476332e-02
  -4.3420044e-02
  -2.7147747e-02
  -2.3686987e-02
  -9.3439922e-03
  -1.4621180e-02
  -1.3196175e-02
   2.3237147e-03
  -7.7459726e-03
   1.2706131e-04
  -3.8719210e-02
  -5.7771878e-02
  -5.8348247e-02
  -5.6974571e-02
  -6.0453096e-02
  -5.4403168e-02
  -7.7123959e-02
  -5.9070112e-02
  -7.1542361e-02
  -6.0406578e-02
  -7.4711000e-02
  -6.1996687e-02
  -6.4283793e-02
  -6.1123492e-02
  -4.1401691e-02
   4.8686101e-02
   1.1271311e-01
   2.2369171e-01
  -2.8787805e-02
  -7.4083569e-01
  -5.9147735e-01
  -2.5174078e-01
  -9.5094077e-02
  -5.7805175e-02
  -2.2645261e-02
  -4.4098690e-02
  -2.4114606e-02
  -2.9190079e-02
  -3.1524137e-02
  -1.8808439e-02
  -1.8252750e-02
  -1.4232119e-02
   5.1876021e-03
  -2.0176265e-02
   2.4669999e-02
  -1.9855667e-03
   1.5869626e-02
   1.9112894e-02
   1.6596343e-02
   2.8451498e-02
   2.8693698e-02
   3.1031105e-02
   5.3421856e-02
   5.2376641e-02
   8.7604532e-02
   8.9024922e-02
   1.2580882e-01
   1.5771267e-01
   1.7346952e-01
   2.0657541e-01
   2.1488989e-01
   2.3120967e-01
   2.2317822e-01
   2.0465718e-01
   1.8194560e-01
   1.4612213e-01
   1.0686739e-01
   8.3183336e-02
   3.5622535e-02
   3.6026485e-02
  -3.3514338e-03
   1.4132849e-03
  -1.7337975e-02
  -1.3977129e-02
  -1.9704939e-02
  -1.7914550e-02
  -2.3784119e-02
  -7.5110547e-03
  -2.3327532e-02
  -5.1179171e-03
  -2.2423939e-02
  -1.3451094e-02
  -2.2654269e-02
  -3.2311261e-02
  -1.6093614e-02
  -2.6349789e-02
   5.6664744e-03
   2.6114062e-03
   3.3852434e-03
  -1.5347707e-03
   1.4228988e-02
   6.2250533e-03
  -1.1759939e-02
  -4.6193440e-02
  -3.6592899e-02
  -5.4866930e-02
  -3.9174156e-02
  -5.2006764e-02
  -6.0433615e-02
  -6.7057962e-02
  -5.4471922e-02
  -5.8838668e-02
  -4.7260883e-02
  -6.0066566e-02
  -5.1852295e-02
  -5.9218582e-02
  -3.3872787e-02
   3.1250037e-02
   1.2414970e-01
   2.3639434e-01
   2.4714289e-01
  -5.5278332e-01
  -7.3099403e-01
  -2.6270444e-01
  -8.2623597e-02
  -4.8289991e-02
  -2.9436358e-02
  -2.6375724e-02
  -4.2904129e-02
  -3.0599989e-03
  -4.0987724e-02
  -4.6482521e-04
  -1.1240828e-02
  -1.1182351e-02
   5.1859458e-03
  -8.8824082e-03
  -8.8812211e-04
   3.7914202e-03
  -8.2214082e-05
   1.4551123e-02
   1.6714339e-02
   2.4422187e-02
   3.8516533e-02
   2.1220867e-02
   5.8554503e-02
   5.7605236e-02
   9.4403542e-02
   9.8272529e-02
   1.1707993e-01
   1.5752122e-01
   1.6914161e-01
   1.9894158e-01
   2.2815565e-01
   2.1894941e-01
   2.4193566e-01
   1.9629902e-01
   1.9936183e-01
   1.4921789e-01
   1.1565745e-01
   8.1399110e-02
   5.7575088e-02
   2.9294959e-02
   9.3061608e-03
  -1.9088543e-02
  -4.2467565e-03
  -3.1550767e-02
  -2.5991394e-02
  -2.1334074e-02
  -3.2560515e-02
  -5.5454714e-03
  -3.0067304e-02
  -1.1203400e-02
  -3.0882320e-02
  -2.6536914e-02
  -3.5796874e-02
  -2.9216706e-02
  -2.6371021e-02
  -1.5482344e-02
  -1.1431222e-02
   4.3668285e-03
  -2.2983133e-02
   3.1277531e-03
   5.1210634e-03
   9.7098577e-03
  -3.5133641e-02
  -4.7348501e-02
  -5.1581841e-02
  -5.8541624e-02
  -5.6018044e-02
  -5.4962615e-02
  -7.6375752e-02
  -6.2095784e-02
  -5.7962796e-02
  -6.4993750e-02
  -7.0296733e-02
  -7.0730609e-02
  -6.1696775e-02
  -7.2224054e-02
  -6.0172947e-02
  -1.3391285e-03
   1.2284832e-01
   2.9581187e-01
   3.8308990e-01
  -3.6467247e-01
  -6.1585813e-01
  -2.9583023e-01
  -1.1426490e-01
  -8.9396462e-02
  -6.1049984e-02
  -6.9425127e-02
  -6.6334780e-02
  -5.8766667e-02
  -6.7731819e-02
  -4.6538063e-02
  -5.3490559e-02
  -7.0216793e-02
  -2.5279885e-02
  -3.5634391e-02
  -3.6131310e-02
  -2.9337924e-02
  -3.3219932e-02
  -1.0696902e-02
  -3.9188403e-02
  -6.6957176e-03
  -8.7420444e-03
  -1.9123436e-03
   2.3019290e-02
   1.7698514e-02
   4.2908741e-02
   7.6084682e-02
   9.4366035e-02
   1.6155490e-01
   1.7406546e-01
   2.2779728e-01
   2.0737103e-01
   1.9635754e-01
   2.1098927e-01
   1.9199712e-01
   1.6339793e-01
   1.3758588e-01
   9.3280678e-02
   7.1340879e-02
   3.2838840e-02
   8.9692981e-03
  -2.2248080e-02
  -4.1147964e-02
  -4.3957928e-02
  -5.1588845e-02
  -2.6746590e-02
   6.1002517e-02
   1.7296844e-01
   2.6053146e-01
  -2.8019056e-02
  -6.6887900e-01
  -4.3801085e-01
  -1.4842815e-01
  -8.3243741e-02
  -1.1565425e-01
  -7.8451506e-02
  -9.9924384e-02
  -7.6614390e-02
  -7.8669510e-02
  -7.8817478e-02
  -5.9296300e-02
  -7.3056011e-02
  -6.6470543e-02
  -4.8748899e-02
  -6.1898047e-02
  -4.4810816e-02
  -4.7245461e-02
  -4.5305040e-02
  -2.4269309e-02
  -4.4962917e-02
  -7.6371641e-04
  -6.0916309e-03
   2.5277165e-02
   4.0221351e-02
   6.6426700e-02
   1.0367527e-01
   1.1537760e-01
   1.3065443e-01
   1.6040065e-01
   1.4371277e-01
   1.7333307e-01
   1.4218848e-01
   1.3207298e-01
   9.5899964e-02
   6.5793659e-02
   3.3675540e-02
   1.3155133e-02
  -1.2408480e-02
  -1.4083363e-02
  -3.8463165e-02
  -3.1367245e-02
  -3.6579323e-02
  -4.6250448e-02
  -3.9493305e-02
  -5.6989535e-02
  -3.6492132e-02
  -6.0339660e-02
  -4.1011051e-02
  -5.8839276e-02
  -6.0656721e-02
  -6.1740740e-02
  -6.3854846e-02
  -6.5750294e-02
  -5.3535683e-02
  -7.4249560e-02
  -5.6857522e-02
  -6.7857266e-02
  -5.4929922e-02
  -6.3236677e-02
  -5.8201066e-02
  -5.6612721e-02
  -5.1798798e-02
  -5.9258566e-02
  -5.7594647e-02
  -5.7511187e-02
  -5.5712673e-02
  -5.1392388e-02
  -5.8264851e-02
  -4.2424703e-02
  -5.6217014e-02
  -4.0401294e-02
  -5.5465618e-02
  -4.2491823e-02
  -5.1860798e-02
  -4.0293724e-02
  -4.4962909e-02
  -1.9969874e-02
  -1.1992078e-02
   8.8359348e-03
  -9.2793729e-03
   1.5371394e-02
   1.3933390e-03
   9.1509740e-03
  -1.5518228e-02
  -2.2881340e-02
  -3.4186284e-02
  -3.7363015e-02
  -4.0577392e-02
  -3.4965429e-02
  -4.6965236e-02
  -4.8603080e-02
  -3.7090787e-02
  -3.9240476e-02
  -3.4630168e-02
  -4.1177861e-02
  -3.2818735e-02
  -2.6473409e-02
   4.9904189e-02
   1.5925914e-01
   3.4665129e-01
   4.5705857e-01
  -2.2134789e-01
  -6.2487492e-01
  -3.6006195e-01
  -1.5992875e-01
  -6.7331378e-02
  -4.4195896e-02
  -3.0447130e-02
  -4.0134799e-02
  -3.2169778e-03
  -2.5006722e-02
  -3.7687026e-03
  -5.0965039e-03
   1.7731583e-03
   6.6894007e-03
   6.4612490e-03
   2.1521479e-02
   1.1325174e-02
   2.2287323e-02
   2.7318885e-02
   3.2779205e-02
   3.6901502e-02
   5.2039816e-02
   4.8498161e-02
   7.7437181e-02
   5.9407517e-02
   9.6944138e-02
   1.0765845e-01
   1.2509719e-01
   1.5182359e-01
   1.7097956e-01
   1.8766270e-01
   2.1800725e-01
   2.1681866e-01
   2.4707823e-01
   2.3258960e-01
   2.5349900e-01
   2.3412191e-01
   2.1869948e-01
   1.9745685e-01
   1.6470605e-01
   1.3427199e-01
   1.1971033e-01
   8.5077680e-02
   8.2361015e-02
   6.0407565e-02
   5.0087013e-02
   5.9185328e-02
   4.1654724e-02
   5.2115502e-02
   4.1136097e-02
   6.0607020e-02
   5.4703895e-02
   6.7344678e-02
   6.2507437e-02
   7.2055971e-02
   6.6197736e-02
   7.0532923e-02
   5.8081460e-02
   7.2884735e-02
   5.3183851e-02
   6.6454001e-02
   5.1172576e-02
   5.8915367e-02
   4.8143730e-02
   6.3761897e-02
   7.1546708e-02
   8.1948455e-02
   8.4045552e-02
   7.9113725e-02
   9.3866628e-02
   8.2813637e-02
   6.7798917e-02
   3.9669473e-02
   3.4837725e-02
   2.4494172e-02
   3.7845270e-02
   2.8084527e-02
   2.9966760e-02
   2.4971092e-02
   2.5345254e-02
   1.8189990e-02
   2.8267622e-02
   1.0856927e-02
   2.9745505e-02
   1.6054359e-02
   4.8081135e-02
   1.0690978e-01
   2.0047047e-01
   3.1773618e-01
   3.5227586e-01
  -5.0894716e-01
  -6.9116640e-01
  -2.4114058e-01
  -3.5568326e-02
  -8.9953751e-03
   3.3902565e-02
   3.3104321e-02
   1.9336785e-02
   5.3624973e-02
   1.3952538e-02
   5.2749980e-02
   3.3576692e-02
   4.5488348e-02
   6.2007372e-02
   4.6154216e-02
   6.1652909e-02
   6.8901466e-02
   4.7049428e-02
   8.5238131e-02
   5.3061058e-02
   8.1144858e-02
   7.3556893e-02
   8.3337886e-02
   1.0376592e-01
   9.9488499e-02
   1.2521713e-01
   1.4356090e-01
   1.5408054e-01
   1.9742903e-01
   2.0545203e-01
   2.3499734e-01
   2.3861738e-01
   2.4504601e-01
   2.6679376e-01
   2.3732315e-01
   2.2978049e-01
   1.8940914e-01
   1.6120128e-01
   1.2663788e-01
   8.3362245e-02
   5.4277432e-02
   3.9176336e-02
   6.6038827e-03
   1.5253069e-02
  -1.6209752e-02
   3.3898375e-03
  -1.6012623e-02
  -8.2167530e-03
  -1.0716609e-02
  -1.0495981e-02
  -1.7115198e-02
  -1.5973622e-02
  -1.3406287e-02
  -2.0467471e-02
  -2.5750785e-02
  -2.7270332e-02
  -1.1335415e-02
  -1.8191339e-02
   8.5057240e-03
  -1.5145890e-02
   2.2854816e-03
   3.1714340e-03
  -2.1403278e-03
  -3.1863485e-02
  -4.9895369e-02
  -6.2745392e-02
  -6.6783690e-02
  -7.7600611e-02
  -6.2875775e-02
  -9.4336244e-02
  -7.3920355e-02
  -8.6869643e-02
  -7.7411715e-02
  -8.8809739e-02
  -8.9038459e-02
  -8.9652829e-02
  -8.1926389e-02
  -7.3083893e-02
  -5.6795804e-03
   6.4789697e-02
   1.8318461e-01
   2.1790510e-01
  -5.9152440e-01
  -8.1320911e-01
  -3.8747200e-01
  -1.4298912e-01
  -1.0672250e-01
  -5.9921314e-02
  -7.5411978e-02
  -7.2485792e-02
  -5.3624478e-02
  -6.5082620e-02
  -5.6176626e-02
  -3.6411957e-02
  -5.6416533e-02
  -1.5841733e-02
  -4.9109854e-02
  -1.7143138e-02
  -3.2129146e-02
  -3.0588797e-02
  -8.2164218e-03
  -1.7929045e-02
  -1.3308491e-02
  -8.0000876e-03
  -5.3481752e-03
   8.3543256e-04
   1.6635909e-03
   3.5408204e-02
   5.1555749e-02
   6.4186207e-02
   1.1370381e-01
   1.2227652e-01
   1.6411864e-01
   1.6125511e-01
   1.6947831e-01
   1.7271621e-01
   1.6309009e-01
   1.4365182e-01
   1.1619284e-01
   6.4965283e-02
   5.1673725e-02
  -1.4646728e-03
  -1.2449941e-02
  -4.4909162e-02
  -5.5444370e-02
  -6.0231382e-02
  -7.6572466e-02
  -6.4375862e-02
  -7.0453709e-02
  -7.1095471e-02
  -6.6681393e-02
  -6.6814644e-02
  -7.0169545e-02
  -6.1553848e-02
  -8.1092355e-02
  -6.8031866e-02
  -8.7106810e-02
  -7.1123928e-02
  -8.2497961e-02
  -6.1951712e-02
  -6.4188495e-02
  -5.7529572e-02
  -6.7201442e-02
  -6.3019139e-02
  -1.0188392e-01
  -1.0035785e-01
  -1.3283491e-01
  -1.1822271e-01
  -1.2450961e-01
  -1.1260697e-01
  -9.7498843e-02
  -1.0774820e-01
  -9.9833161e-02
  -1.0508883e-01
  -1.0310487e-01
  -1.1350979e-01
  -1.0380480e-01
  -1.1060890e-01
  -5.7291697e-02
   4.8652720e-02
   2.0846911e-01
   2.7990680e-01
  -3.3015171e-01
  -6.8857152e-01
  -3.7800228e-01
  -1.7630344e-01
  -1.2906909e-01
  -1.1000100e-01
  -8.5174171e-02
  -1.0375405e-01
  -6.7658328e-02
  -1.0353685e-01
  -7.6394791e-02
  -7.6848890e-02
  -7.8309477e-02
  -5.5693748e-02
  -6.8249361e-02
  -5.3072408e-02
  -5.7988290e-02
  -5.3834387e-02
  -4.7478855e-02
  -5.3659135e-02
  -4.9608484e-02
  -2.9582334e-02
  -2.9420701e-02
  -4.5041369e-03
  -4.6502561e-03
   1.9106988e-02
   3.3834096e-02
   4.9842073e-02
   8.3304118e-02
   1.1424522e-01
   1.2813932e-01
   1.6183817e-01
   1.5468716e-01
   1.8670418e-01
   1.5416994e-01
   1.4753868e-01
   1.0588765e-01
   7.0066500e-02
   3.5100820e-02
   3.7148436e-03
  -1.4184503e-02
  -3.0517338e-02
  -6.0977564e-02
  -5.7156825e-02
  -6.2437760e-02
  -7.5021328e-02
  -6.7869684e-02
  -8.6331225e-02
  -5.9191299e-02
  -8.2938069e-02
  -6.6437360e-02
  -8.4141264e-02
  -7.6803345e-02
  -7.6029382e-02
  -7.3348152e-02
  -8.2770008e-02
  -7.5342601e-02
  -9.2302791e-02
  -6.7728378e-02
  -6.9288191e-02
  -4.3984803e-02
  -4.6687654e-02
  -3.7899159e-02
  -2.9224809e-02
  -4.8920206e-02
  -6.5046534e-02
  -7.2606998e-02
  -9.2901853e-02
  -9.0776390e-02
  -9.9864938e-02
  -9.1193351e-02
  -9.8729408e-02
  -1.0358863e-01
  -9.2390690e-02
  -1.0002288e-01
  -9.2485551e-02
  -1.0445846e-01
  -9.4470348e-02
  -1.0315964e-01
  -8.6041743e-02
  -2.9931940e-02
   1.1237245e-01
   2.9676952e-01
   3.8622945e-01
  -4.4494367e-01
  -6.9668244e-01
  -3.5774280e-01
  -1.5828564e-01
  -1.2451637e-01
  -7.8136647e-02
  -8.1076596e-02
  -9.3611656e-02
  -5.9921353e-02
  -8.7734003e-02
  -5.9854494e-02
  -7.1860050e-02
  -5.8509632e-02
  -4.6821906e-02
  -5.7034326e-02
  -4.6446713e-02
  -3.2523949e-02
  -4.3178465e-02
  -1.8660437e-02
  -4.1612289e-02
  -7.7467280e-03
  -1.3097548e-02
   1.7705375e-03
   9.6816727e-03
   1.8676161e-02
   4.0905502e-02
   6.6319425e-02
   7.6443298e-02
   1.2300727e-01
   1.2404143e-01
   1.6973974e-01
   1.7591338e-01
   1.9182503e-01
   2.0670651e-01
   1.9030315e-01
   1.7921383e-01
   1.5118011e-01
   1.1257219e-01
   8.1224797e-02
   4.0587452e-02
   2.3491284e-02
   5.4771777e-03
  -2.2546958e-02
  -1.0675050e-02
  -3.9025174e-02
  -2.7631017e-02
  -4.5154288e-02
  -3.2735535e-02
  -3.6621738e-02
  -3.3914467e-02
  -3.3560498e-02
  -2.5289985e-02
  -3.7728338e-02
  -2.7311992e-02
  -3.8857207e-02
  -1.9112176e-02
  -1.5808229e-02
  -7.6882461e-03
  -8.0271796e-03
  -8.6291503e-03
   5.2530923e-03
  -5.3213975e-03
  -2.2619384e-02
  -3.8331940e-02
  -5.8039619e-02
  -6.5055940e-02
  -6.0903521e-02
  -7.2508418e-02
  -7.4022425e-02
  -8.3216444e-02
  -7.0373953e-02
  -7.5955063e-02
  -7.7564074e-02
  -8.4417016e-02
  -7.3289464e-02
  -7.5350141e-02
  -6.1356993e-02
  -3.3476991e-02
   6.8666851e-02
   1.6552234e-01
   2.8792451e-01
  -1.9791792e-01
  -7.7044791e-01
  -4.9199032e-01
  -1.9193784e-01
  -8.8354356e-02
  -5.6151285e-02
  -2.8248488e-02
  -5.4794716e-02
  -2.5913443e-02
  -3.2300214e-02
  -2.5238798e-02
  -2.4229838e-02
  -2.3869135e-02
  -1.1414088e-02
  -6.9555700e-03
  -1.4840152e-02
   5.0634621e-03
  -1.2725951e-02
   1.3018140e-02
   8.2013483e-03
   2.0706749e-02
   2.4463938e-02
   2.8145208e-02
   4.2566017e-02
   5.3596975e-02
   6.0929891e-02
   9.3811912e-02
   9.4070306e-02
   1.4174219e-01
   1.5881688e-01
   1.8169652e-01
   2.0800652e-01
   2.2038292e-01
   2.3198823e-01
   2.1976428e-01
   2.0270809e-01
   1.6903184e-01
   1.3648292e-01
   1.0261549e-01
   7.5350143e-02
   3.3341748e-02
   2.3663571e-02
  -7.9415232e-03
   2.1872717e-03
  -1.4608244e-02
  -6.4964593e-03
  -1.1653270e-02
  -7.2104854e-03
  -7.8731899e-03
  -4.0086231e-03
  -6.1536855e-03
   3.6249297e-03
  -6.4290424e-03
  -2.5421934e-03
   1.2130403e-03
  -9.9246291e-03
  -1.5989072e-03
   4.0907123e-03
   2.2842943e-02
   2.6511030e-02
   3.0671288e-02
   2.8891924e-02
   4.4621620e-02
   3.8817408e-02
   2.2528986e-02
  -3.6434409e-03
  -5.3072244e-04
  -2.4032549e-02
  -1.5380765e-03
  -1.1963197e-02
  -7.8486813e-03
  -2.0477119e-02
  -8.1745387e-03
  -1.5838035e-02
  -6.3712424e-03
  -1.7277979e-02
  -4.8624547e-03
  -1.2451696e-02
   4.7049155e-03
   4.8012476e-02
   1.4214125e-01
   2.3938665e-01
   2.9806301e-01
  -2.6948523e-01
  -6.9349867e-01
  -3.6564682e-01
  -1.0095972e-01
  -2.3243208e-03
   2.6086277e-02
   4.6424032e-02
   2.6205740e-02
   6.0719603e-02
   3.9974756e-02
   7.1614320e-02
   7.1693868e-02
   7.8098902e-02
   8.0579190e-02
   8.1657661e-02
   9.2135672e-02
   1.0259759e-01
   9.4410691e-02
   1.0591645e-01
   1.0780283e-01
   1.0358867e-01
   1.2258030e-01
   1.0632827e-01
   1.4571173e-01
   1.2451502e-01
   1.5907595e-01
   1.8246258e-01
   1.9373574e-01
   2.2499228e-01
   2.4598776e-01
   2.6534315e-01
   2.9775264e-01
   2.9579520e-01
   3.1572035e-01
   2.8804136e-01
   2.8685260e-01
   2.4451775e-01
   2.2270650e-01
   1.7694106e-01
   1.3999563e-01
   1.0746121e-01
   9.0698980e-02
   5.3896251e-02
   5.6944798e-02
   3.6096684e-02
   3.3431257e-02
   2.5928720e-02
   3.0139542e-02
   4.2263154e-02
   7.1632451e-02
   7.9473534e-02
   6.2433693e-02
   7.0528863e-02
   6.4193329e-02
   6.3036008e-02
   3.5589120e-02
   3.8226666e-02
   2.1825545e-02
   3.9847788e-02
   1.4195849e-02
   1.3341255e-01
   2.8156116e-01
   3.8336796e-01
   3.1655524e-01
  -3.6771566e-01
  -6.3253971e-01
  -2.4303211e-01
  -6.5015081e-02
  -1.4364071e-02
   6.3942429e-04
  -9.0290798e-03
  -1.8328437e-02
   1.5876018e-02
   7.7679658e-03
   6.2866813e-03
   1.5755586e-02
  -5.8015029e-03
   2.0490895e-02
   4.2176141e-03
   3.1705537e-02
   1.6402636e-02
   3.5186016e-02
   3.5695216e-02
   3.5928819e-02
   2.7003856e-02
   5.1845075e-02
   5.1339784e-02
   8.5685377e-02
   8.1675266e-02
   1.2225901e-01
   1.3237713e-01
   1.7212210e-01
   1.9078054e-01
   2.1783709e-01
   2.2773601e-01
   2.3864067e-01
   2.1851495e-01
   2.1181686e-01
   1.6953338e-01
   1.3419978e-01
   9.4315794e-02
   5.0126726e-02
   3.1672538e-02
  -9.3835875e-03
  -2.0887939e-02
  -4.0619430e-02
  -3.9465231e-02
  -4.8385509e-02
  -4.8936894e-02
  -5.0823981e-02
  -4.9961248e-02
  -6.8661349e-02
  -4.8654907e-02
  -6.7680717e-02
  -5.5609777e-02
  -6.9706650e-02
  -6.2759376e-02
  -7.3467496e-02
  -6.7010292e-02
  -7.0426142e-02
  -7.3868789e-02
  -7.7645221e-02
  -6.8112010e-02
  -8.1127616e-02
  -7.5384125e-02
  -8.3405038e-02
  -7.7077379e-02
  -6.3387923e-02
  -7.4950931e-02
  -6.5726749e-02
  -7.2760066e-02
  -7.1326676e-02
  -7.8272377e-02
  -7.4462240e-02
  -8.0377354e-02
  -6.7699484e-02
  -7.5832162e-02
  -5.3466915e-02
  -4.9260823e-02
  -3.0050416e-02
  -3.2601618e-02
  -2.5271810e-02
  -2.3323020e-02
  -1.3678958e-02
  -3.4293900e-02
  -3.7441201e-02
  -6.4490947e-02
  -5.3233517e-02
  -6.3491863e-02
  -5.9007580e-02
  -4.8307000e-02
  -7.7913833e-02
  -7.3945909e-02
  -7.8192039e-02
  -6.3533118e-02
  -7.3474995e-02
  -6.3012234e-02
  -7.3697774e-02
  -6.2961989e-02
   1.4370167e-02
   1.6934302e-01
   4.0312805e-01
   5.0163874e-01
  -3.1584886e-01
  -5.8628052e-01
  -3.1731138e-01
  -1.4645986e-01
  -1.1309395e-01
  -6.2729945e-02
  -8.0788954e-02
  -7.3886177e-02
  -5.1824509e-02
  -8.5288012e-02
  -4.9724279e-02
  -6.4998918e-02
  -5.3331910e-02
  -4.3323310e-02
  -4.8852252e-02
  -4.0622498e-02
  -3.0032262e-02
  -4.2541511e-02
  -1.9433842e-02
  -3.8025261e-02
  -6.3250557e-03
  -2.4817387e-02
  -2.5996836e-03
   4.6634674e-03
   1.2884162e-02
   3.2373795e-02
   5.5243659e-02
   6.2508062e-02
   1.0837409e-01
   1.0860053e-01
   1.6134872e-01
   1.6528069e-01
   1.8799392e-01
   2.0236312e-01
   1.9999455e-01
   2.0084057e-01
   1.8095851e-01
   1.4870346e-01
   1.3199139e-01
   8.1144492e-02
   6.0338289e-02
   3.0589493e-02
  -8.3451634e-04
  -4.6375429e-03
  -3.3503660e-02
  -1.6101520e-02
  -3.9560470e-02
  -3.1346440e-02
  -3.5708332e-02
  -3.3128519e-02
  -2.7256235e-02
  -1.9704615e-02
  -3.1411078e-02
  -1.6638181e-02
  -3.2798164e-02
  -1.2996474e-02
  -2.0107184e-02
  -1.7328774e-03
   7.3129245e-03
  -2.1819493e-03
   1.0654329e-02
   2.8270509e-04
   1.2751389e-02
  -7.8315804e-03
  -4.1581763e-02
  -5.5427099e-02
  -4.9880902e-02
  -7.6917402e-02
  -6.4681476e-02
  -7.6987617e-02
  -8.0444171e-02
  -9.1038942e-02
  -7.7422828e-02
  -8.9912142e-02
  -7.7926648e-02
  -9.5805551e-02
  -7.6792704e-02
  -8.7886019e-02
  -5.5864613e-02
   1.4465868e-02
   1.3238719e-01
   2.5068230e-01
   2.8792606e-02
  -7.4033976e-01
  -7.7623335e-01
  -2.8482643e-01
  -1.1013986e-01
  -8.8734344e-02
  -6.0058449e-02
  -6.1563485e-02
  -7.1118928e-02
  -4.6482176e-02
  -6.7706389e-02
  -3.6745479e-02
  -5.1997225e-02
  -3.6478922e-02
  -3.7928896e-02
  -3.2537958e-02
  -2.3246766e-02
  -1.2428062e-02
  -2.1916641e-02
   5.9797364e-04
  -1.7400291e-02
   1.0428899e-02
   1.8696849e-03
   2.2509842e-02
   3.8826673e-02
   4.2816125e-02
   6.3618133e-02
   8.6089753e-02
   1.0200035e-01
   1.4200669e-01
   1.5252784e-01
   1.9225399e-01
   1.9556245e-01
   2.0189450e-01
   2.1066122e-01
   1.8345718e-01
   1.6636695e-01
   1.2547531e-01
   9.1867460e-02
   5.9625336e-02
   3.2928141e-02
   5.2187232e-03
  -5.9556596e-03
  -2.9057627e-02
  -2.6983281e-02
  -4.3111987e-02
  -2.1472529e-02
  -4.1689831e-02
  -3.0337969e-02
  -3.8340517e-02
  -3.3483860e-02
  -3.7978425e-02
  -3.7363633e-02
  -4.6384298e-02
  -3.9468839e-02
  -4.9249215e-02
  -3.9227931e-02
  -3.3680454e-02
  -2.2246823e-02
  -1.5846413e-02
  -2.4733726e-02
  -5.8687304e-03
  -1.3958204e-02
  -2.2814703e-02
  -4.6864261e-02
  -5.5252322e-02
  -6.1859350e-02
  -5.9915152e-02
  -6.4112200e-02
  -6.7893169e-02
  -8.5994106e-02
  -6.8421182e-02
  -7.5443114e-02
  -6.5229619e-02
  -6.9299577e-02
  -6.6496445e-02
  -6.9563145e-02
  -6.6172398e-02
  -4.1862959e-02
   5.2867795e-02
   1.4656282e-01
   2.5299176e-01
  -1.5580182e-01
  -7.8224926e-01
  -5.2871305e-01
  -2.1417631e-01
  -8.1859625e-02
  -6.0193903e-02
  -3.1993949e-02
  -5.7530626e-02
  -2.8160004e-02
  -3.6930528e-02
  -3.0242853e-02
  -1.9151694e-02
  -2.7118180e-02
  -1.9661176e-02
  -7.9664576e-03
  -2.0181766e-02
   8.7495841e-03
  -7.0884250e-03
   1.4200297e-02
   5.9784451e-03
   9.7543892e-03
   2.6805940e-02
   2.3129538e-02
   4.2557280e-02
   5.0105814e-02
   5.9322553e-02
   8.5084471e-02
   9.2911979e-02
   1.2608045e-01
   1.5395015e-01
   1.7399432e-01
   2.0840822e-01
   2.0321322e-01
   2.2505475e-01
   2.0890083e-01
   2.0892783e-01
   1.6820290e-01
   1.3838095e-01
   9.4529147e-02
   7.3628356e-02
   2.3553252e-02
   2.1638625e-02
  -1.7194886e-02
  -6.8372787e-03
  -2.7666583e-02
  -2.2090433e-02
  -2.5087513e-02
  -2.2444722e-02
  -2.8000467e-02
  -1.8528913e-02
  -3.2421940e-02
  -1.6279797e-02
  -1.8144814e-02
  -2.8022342e-02
  -1.5325084e-02
  -3.2050342e-02
  -2.2379936e-02
  -1.4344111e-02
   6.4723766e-03
  -5.9445530e-03
   6.8638807e-03
   2.1417573e-03
   1.5299153e-02
  -4.0163849e-03
  -1.6202812e-02
  -5.3370080e-02
  -3.8835820e-02
  -6.4765030e-02
  -4.5301374e-02
  -6.2290285e-02
  -5.8596387e-02
  -6.5221084e-02
  -5.9877530e-02
  -6.6183032e-02
  -6.2905196e-02
  -5.9512456e-02
  -6.5403347e-02
  -6.0918442e-02
  -3.7302360e-02
   3.5180685e-02
   1.1379154e-01
   2.3195177e-01
   2.3473616e-01
  -6.4960590e-01
  -8.1015179e-01
  -3.0918240e-01
  -1.0682665e-01
  -6.8719164e-02
  -3.2544091e-02
  -3.5457737e-02
  -4.9854778e-02
   1.4666037e-03
  -4.1402377e-02
   3.0221378e-04
  -1.6115552e-02
  -1.3737135e-02
   3.7493085e-03
  -5.1178040e-03
   2.3430459e-02
   8.9518877e-03
   1.1033015e-02
   2.2283802e-02
   1.5661484e-02
   2.7104739e-02
   3.3328107e-02
   3.5940260e-02
   7.0574491e-02
   5.1385328e-02
   9.5289094e-02
   9.7970504e-02
   1.2595761e-01
   1.6337835e-01
   1.7233797e-01
   2.0376437e-01
   2.2262511e-01
   2.1674227e-01
   2.4189665e-01
   1.9887027e-01
   2.0308218e-01
   1.5783558e-01
   1.2278609e-01
   9.5416151e-02
   4.9969412e-02
   3.1773970e-02
   1.7013770e-02
  -7.2518012e-03
  -6.3076960e-03
  -1.5450459e-02
  -1.3838803e-02
  -9.1462372e-03
  -2.6977879e-02
  -7.7631796e-03
  -2.5152581e-02
  -4.6511242e-03
  -1.4735175e-02
  -1.1851545e-02
  -1.3839809e-02
  -1.9748409e-02
  -2.5302510e-02
  -1.0489628e-02
  -1.6802016e-02
   9.9273547e-03
  -1.4459457e-02
   1.3692060e-02
   9.1141149e-03
   8.8321482e-03
  -1.5881170e-02
  -3.3957995e-02
  -4.1863993e-02
  -4.1005230e-02
  -4.6707331e-02
  -3.6908620e-02
  -6.8553923e-02
  -5.7867432e-02
  -5.1634460e-02
  -6.0952769e-02
  -4.8679809e-02
  -6.8016566e-02
  -4.8684368e-02
  -6.6621585e-02
  -4.1573443e-02
   4.4259588e-03
   8.6090861e-02
   1.7906729e-01
   2.2820386e-01
  -4.4887546e-01
  -7.5804596e-01
  -4.0648754e-01
  -1.4049634e-01
  -7.6938879e-02
  -3.2756595e-02
  -2.7954117e-02
  -2.5931622e-02
  -1.0207069e-02
  -2.0632705e-02
  -3.5293020e-03
  -1.2897913e-02
  -5.9439320e-03
   8.7396940e-03
   9.9094818e-03
   1.0872147e-02
   3.1301151e-02
   1.0045531e-02
   3.7484135e-02
   1.0507669e-02
   3.0566839e-02
   3.0423347e-02
   4.0692631e-02
   5.1157505e-02
   7.0484623e-02
   7.5375312e-02
   1.0464643e-01
   1.1076264e-01
   1.6508604e-01
   1.6092146e-01
   2.0952998e-01
   2.1927902e-01
   2.2699552e-01
   2.4372748e-01
   2.2264300e-01
   2.0461601e-01
   1.7940628e-01
   1.3337490e-01
   1.0823000e-01
   6.3181050e-02
   4.4318031e-02
   2.3707531e-02
  -1.3835609e-03
   1.1508170e-02
  -1.6198916e-02
  -6.6286985e-03
  -1.6854637e-02
  -1.1050967e-02
  -1.4299303e-02
  -1.5920146e-02
  -3.1717969e-02
  -1.7382373e-02
  -2.0898777e-02
   5.0848941e-03
  -2.0582995e-02
  -2.1767273e-02
  -1.8088856e-02
  -2.9564386e-02
  -2.1038409e-02
  -3.5254203e-02
   3.1496498e-02
   2.2257169e-01
   3.2617639e-01
   2.9490977e-01
  -2.5797969e-01
  -7.7581120e-01
  -4.6548532e-01
  -1.7350716e-01
  -6.9166997e-02
  -5.4922213e-02
  -2.8011674e-02
  -5.3640111e-02
  -2.7202558e-02
  -3.8576069e-02
  -2.4426022e-02
  -2.3929444e-02
  -2.2856208e-02
  -1.3004587e-02
   1.5121519e-03
  -8.9810053e-03
   1.9987000e-02
  -1.8622660e-03
   3.1293794e-02
   2.6391875e-02
   3.6722217e-02
   5.8469241e-02
   5.9346444e-02
   7.5565741e-02
   9.1133922e-02
   1.0219322e-01
   1.3747331e-01
   1.5947799e-01
   1.9519237e-01
   2.1586527e-01
   2.2774320e-01
   2.4713642e-01
   2.2589064e-01
   2.2519159e-01
   1.8681152e-01
   1.5379278e-01
   1.1700335e-01
   7.6906125e-02
   4.0024405e-02
   2.1425487e-02
  -1.0993021e-02
   7.3465992e-04
  -2.7838021e-02
  -1.5711143e-02
  -3.3939886e-02
  -2.5745955e-02
  -2.9956849e-02
  -3.2251321e-02
  -2.1618753e-02
  -3.8075467e-02
  -3.1252526e-02
  -3.9854315e-02
  -4.1802256e-02
  -5.6790955e-02
  -3.8465429e-02
  -5.5703753e-02
  -4.0325113e-02
  -5.6801071e-02
  -4.6560786e-02
  -5.8665604e-02
  -4.5562417e-02
  -6.0308766e-02
  -5.1782263e-02
  -6.1671777e-02
  -4.8569222e-02
  -6.0540143e-02
  -4.0611264e-02
  -6.1372245e-02
  -4.1947566e-02
  -5.3559863e-02
  -4.5074542e-02
  -4.1381032e-02
  -4.5496767e-02
  -3.7613875e-02
  -4.3102357e-02
  -2.0544267e-02
  -6.5754942e-03
  -1.1481990e-04
  -2.8986849e-03
   1.1872439e-02
   5.1585689e-03
  -1.1014959e-02
  -3.0141347e-02
  -3.2607706e-02
  -4.2774805e-02
  -4.5007660e-02
  -4.6414574e-02
  -4.5049152e-02
  -5.7440744e-02
  -4.3312925e-02
  -4.9624311e-02
  -4.1435761e-02
  -5.5053058e-02
  -4.2457038e-02
  -4.8196359e-02
  -2.9700648e-02
   5.1299736e-02
   1.7357719e-01
   3.1547267e-01
   3.4261421e-01
  -5.5118210e-01
  -7.3224941e-01
  -3.3127635e-01
  -1.2846560e-01
  -8.5224204e-02
  -4.2493926e-02
  -4.4390722e-02
  -5.6411357e-02
  -1.9098985e-02
  -5.2570721e-02
  -1.3790736e-02
  -2.9195616e-02
  -2.0311142e-02
  -1.0589618e-02
  -2.0828901e-02
  -9.6821425e-03
  -3.9988741e-03
  -1.4449207e-02
   1.8069181e-02
  -4.4461833e-03
   2.4626080e-02
   6.2487655e-03
   1.6292234e-02
   3.6769590e-02
   3.7010038e-02
   5.8553876e-02
   7.1302617e-02
   8.6727105e-02
   1.2578804e-01
   1.3778124e-01
   1.7303530e-01
   1.9128333e-01
   1.9289924e-01
   2.2486070e-01
   2.0453832e-01
   2.2280651e-01
   1.7251567e-01
   1.5871811e-01
   1.2969902e-01
   9.6321354e-02
   6.2208407e-02
   4.7583463e-02
   4.5033491e-03
   1.3599860e-02
  -2.3105579e-02
  -1.3186247e-02
  -2.3117887e-02
  -1.9789797e-02
  -7.6186164e-03
  -2.6870733e-02
  -9.1125285e-03
  -1.7586189e-02
  -9.3752997e-03
  -1.3025080e-02
  -1.4897278e-03
  -8.9393598e-03
   2.4212486e-03
  -4.1536022e-03
   2.1771381e-02
   4.1533766e-03
   2.5776982e-02
   1.2675450e-02
   2.1511879e-02
  -3.0940668e-03
  -1.9885866e-02
  -4.4181163e-02
  -4.1987419e-02
  -5.8238069e-02
  -3.8731040e-02
  -6.4410162e-02
  -6.4113992e-02
  -6.7452726e-02
  -5.7470241e-02
  -6.3898633e-02
  -7.4019033e-02
  -6.4584274e-02
  -7.1590700e-02
  -6.2637183e-02
  -6.3952692e-02
   2.9110547e-02
   1.0968617e-01
   2.1248569e-01
  -3.1096805e-02
  -7.2865612e-01
  -7.9461353e-01
  -2.5840960e-01
  -1.0301807e-01
  -6.6202562e-02
  -4.8505506e-02
  -3.3261610e-02
  -4.4294845e-02
  -1.8006014e-02
  -4.4693099e-02
  -9.0748030e-03
  -1.7967478e-02
  -1.3258179e-02
  -9.0809980e-03
  -8.3867759e-03
   6.1062682e-04
   7.2672530e-03
   1.6906059e-02
   1.6176708e-02
   2.1795377e-02
   2.5828106e-02
   3.7505714e-02
   2.7457189e-02
   6.0470754e-02
   5.7530932e-02
   9.5488732e-02
   9.7497585e-02
   1.2782787e-01
   1.5480923e-01
   1.8339250e-01
   2.0030741e-01
   2.2276905e-01
   2.1875517e-01
   2.3990061e-01
   1.9518290e-01
   1.9059087e-01
   1.3882066e-01
   1.1990675e-01
   7.9795192e-02
   4.6346541e-02
   2.4828376e-02
   9.2721537e-03
  -1.4971686e-02
  -1.5835980e-02
  -1.8652289e-02
  -2.4823978e-02
  -1.6397860e-02
  -2.9235638e-02
  -1.1221610e-02
  -3.7725642e-02
  -1.5146625e-02
  -3.5866595e-02
  -1.8859682e-02
  -3.6282182e-02
  -3.1945037e-02
  -3.5523032e-02
  -2.5211896e-02
  -1.9101919e-02
  -6.0840697e-03
  -1.6459746e-02
  -6.5464009e-04
   2.3703534e-04
  -3.2290359e-03
  -3.0677857e-02
  -4.5839947e-02
  -6.0173098e-02
  -6.4261292e-02
  -5.8621236e-02
  -6.0422835e-02
  -7.5503047e-02
  -7.5328712e-02
  -6.4093072e-02
  -6.7875932e-02
  -6.0777744e-02
  -7.4929137e-02
  -6.0309534e-02
  -6.8591846e-02
  -4.7867640e-02
  -1.9572343e-03
   8.4351725e-02
   1.6861487e-01
   2.1657088e-01
  -4.6948651e-01
  -7.5439428e-01
  -3.9277004e-01
  -1.3494039e-01
  -7.8607819e-02
  -3.7427809e-02
  -3.3433466e-02
  -5.1309619e-02
  -2.0006130e-02
  -4.6225331e-02
  -1.7958870e-02
  -2.8451059e-02
  -2.0252654e-02
  -1.2669470e-03
  -9.6106913e-03
  -3.4388813e-03
   1.6257366e-02
  -3.6116988e-03
   2.2635457e-02
   1.1142250e-02
   3.1861734e-02
   2.1127564e-02
   3.6858220e-02
   4.7183886e-02
   6.1814412e-02
   6.6626659e-02
   1.0074708e-01
   1.0255922e-01
   1.5630697e-01
   1.6226472e-01
   2.0659714e-01
   2.1557812e-01
   2.2392985e-01
   2.4062087e-01
   2.1922442e-01
   2.0195090e-01
   1.7606669e-01
   1.3059683e-01
   1.1029079e-01
   6.5166744e-02
   4.6899713e-02
   2.5615359e-02
   1.2116339e-03
   1.3845100e-02
  -1.3926203e-02
  -8.7076743e-03
  -1.4847939e-02
  -1.3050019e-02
  -1.6710292e-02
  -1.3716861e-02
  -1.8610329e-02
  -9.9359308e-03
  -1.7749079e-02
  -6.8567360e-03
  -2.8162478e-02
  -8.9960257e-03
  -1.9639026e-02
  -2.6457993e-03
   7.3944178e-03
  -2.0184803e-03
   1.0086248e-02
   1.1372984e-03
   2.2157240e-02
   7.7376043e-03
  -2.5863827e-02
  -3.5687162e-02
  -3.8123938e-02
  -4.7418130e-02
  -3.3412732e-02
  -5.0364044e-02
  -4.5929814e-02
  -5.8148905e-02
  -4.7215826e-02
  -5.8411269e-02
  -5.5271521e-02
  -6.1174408e-02
  -4.8082832e-02
  -5.7079859e-02
  -1.9314603e-02
   3.8516515e-02
   1.2307968e-01
   2.1022014e-01
   1.4384600e-02
  -7.2336668e-01
  -7.8575707e-01
  -2.7562483e-01
  -8.0047201e-02
  -5.6027834e-02
  -2.3483713e-02
  -2.5231592e-02
  -4.0633220e-02
  -1.0954994e-02
  -3.8987125e-02
  -4.6180737e-03
  -1.5291197e-02
  -5.7142087e-06
   7.8071184e-03
   2.3048406e-03
   4.6946765e-03
   1.9605823e-02
   1.0715275e-02
   3.6788001e-02
   1.3113491e-02
   3.4263122e-02
   2.9384478e-02
   5.1081115e-02
   6.5768282e-02
   6.8836752e-02
   8.8293494e-02
   1.0941979e-01
   1.2625429e-01
   1.6963451e-01
   1.7937443e-01
   2.1280045e-01
   2.2432938e-01
   2.1749647e-01
   2.3375633e-01
   2.1081509e-01
   1.9808663e-01
   1.5472317e-01
   1.2330827e-01
   8.8671756e-02
   6.1238468e-02
   2.7801594e-02
   1.9064894e-02
  -6.7219935e-03
  -2.1293619e-03
  -2.3953049e-02
  -7.8787538e-03
  -1.6308491e-02
  -1.1625899e-02
  -1.7825851e-02
  -1.3730235e-02
  -1.8113529e-02
  -1.1455033e-02
  -2.1611568e-02
  -1.3159021e-02
  -1.3927484e-02
  -2.7580930e-02
  -1.7462486e-02
  -2.1267047e-02
   6.1314621e-03
  -8.7692543e-03
   1.6700649e-02
   2.6174403e-03
   2.3750786e-02
  -3.7723074e-03
  -1.8123584e-02
  -3.8854459e-02
  -3.6949546e-02
  -5.6368944e-02
  -3.9717470e-02
  -6.3000027e-02
  -4.9393009e-02
  -6.2343965e-02
  -5.1246768e-02
  -6.0307506e-02
  -5.7842321e-02
  -5.9997790e-02
  -5.7216495e-02
  -6.1559980e-02
  -1.6629448e-02
   6.0589564e-02
   1.4889737e-01
   2.1642139e-01
  -2.1473740e-01
  -7.7864987e-01
  -4.9950277e-01
  -1.9612237e-01
  -8.3987535e-02
  -4.7962941e-02
  -3.6261614e-02
  -4.3374450e-02
  -2.9522732e-02
  -1.8548870e-02
  -2.7390344e-02
  -2.6775754e-03
  -2.7414286e-02
   4.4433603e-03
  -1.3454615e-02
  -2.1912762e-03
   5.9000179e-03
   3.6119710e-03
   1.3261948e-02
   2.1385799e-02
   8.2494465e-03
   3.4537778e-02
   1.4389159e-02
   4.2366959e-02
   4.5712017e-02
   3.9179910e-02
   8.2093269e-02
   9.5111132e-02
   1.3153956e-01
   1.4480990e-01
   1.7423383e-01
   1.9644882e-01
   2.1052388e-01
   2.1618766e-01
   2.1502446e-01
   1.8989532e-01
   1.8123155e-01
   1.2175769e-01
   1.1058280e-01
   6.0307858e-02
   4.0015170e-02
   1.4882038e-02
  -3.0017688e-03
  -2.0548666e-02
  -1.5554019e-02
  -3.5103180e-02
  -2.1300936e-02
  -3.8221422e-02
  -3.5787292e-02
  -2.1937417e-02
  -3.4297976e-02
  -1.7746021e-02
  -3.7955961e-02
  -2.1341988e-02
  -3.7209219e-02
  -1.9621143e-02
  -3.8141996e-02
  -2.3322941e-02
  -1.7319411e-02
  -1.1886596e-02
  -1.5529835e-02
   1.2724743e-03
  -8.1335311e-03
   6.9545173e-03
  -3.6290485e-02
  -5.0660553e-02
  -6.4476815e-02
  -6.2725459e-02
  -6.9135099e-02
  -6.7000335e-02
  -8.5930888e-02
  -7.0436829e-02
  -6.8149649e-02
  -6.9135251e-02
  -6.8188417e-02
  -8.0657576e-02
  -6.6350325e-02
  -8.2965092e-02
  -6.5062608e-02
  -2.0030072e-02
   5.8256552e-02
   1.4162724e-01
   1.9141414e-01
  -4.3376084e-01
  -7.6612462e-01
  -4.3453339e-01
  -1.6426246e-01
  -9.2273699e-02
  -4.3005739e-02
  -4.6406839e-02
  -4.4217575e-02
  -3.3778609e-02
  -4.0949746e-02
  -3.3757670e-02
  -1.7152767e-02
  -2.8599561e-02
  -5.1681609e-03
  -2.5442762e-02
  -4.3102449e-03
  -2.8104343e-03
  -1.2685206e-02
   1.2891900e-02
  -4.3480191e-03
   1.9733804e-02
   1.1860456e-02
   2.2595830e-02
   3.6639949e-02
   4.6139214e-02
   6.8709235e-02
   9.1468972e-02
   1.0266705e-01
   1.4540486e-01
   1.5655057e-01
   1.9803894e-01
   2.0634045e-01
   2.2798622e-01
   2.2527696e-01
   2.1747660e-01
   1.9812654e-01
   1.8189944e-01
   1.3387286e-01
   1.1009919e-01
   6.7818363e-02
   5.3061101e-02
   2.6383974e-02
   1.8605802e-02
   9.2689472e-03
   2.7905796e-03
   2.3275485e-03
  -3.5989643e-03
   8.0095532e-03
   4.3267018e-03
   2.7988002e-03
   1.9425189e-03
   6.5838353e-03
  -1.8055035e-03
   8.8691377e-03
  -1.8715927e-03
   6.7906389e-03
   1.4688549e-03
   1.3254310e-02
   2.3393688e-02
   2.8481305e-02
   2.6619998e-02
   4.1237535e-02
   4.8516481e-02
   4.8708913e-02
   1.4142733e-02
   6.5851914e-03
  -1.3127421e-02
  -2.0969025e-02
  -7.4456634e-03
  -2.0112550e-02
  -9.1803998e-03
  -2.2915200e-02
  -1.5714576e-02
  -1.7662476e-02
  -1.4600840e-02
  -2.4220347e-02
  -1.3001423e-02
  -2.0303317e-02
   6.9082546e-03
   5.4350856e-02
   1.3503409e-01
   2.1088948e-01
   2.5489705e-01
  -4.2974346e-01
  -7.1316520e-01
  -3.3761586e-01
  -8.7406425e-02
  -2.5553378e-02
   1.7168184e-02
   1.8365878e-02
   3.4493292e-03
   3.2759725e-02
   6.8991481e-03
   3.6526516e-02
   2.8461872e-02
   3.4597640e-02
   4.1821772e-02
   3.8277958e-02
   4.6257566e-02
   5.3741356e-02
   4.0602551e-02
   7.0936716e-02
   4.9710548e-02
   8.0854504e-02
   7.8807915e-02
   8.1946987e-02
   9.0093693e-02
   9.5880038e-02
   1.1082758e-01
   1.4840722e-01
   1.6267381e-01
   2.0454676e-01
   2.2617177e-01
   2.7603152e-01
   2.8897643e-01
   2.8902333e-01
   2.8484254e-01
   2.6316258e-01
   2.4199847e-01
   2.0509821e-01
   1.6027475e-01
   1.3501870e-01
   8.9437910e-02
   6.7087228e-02
   4.9916619e-02
   2.6172967e-02
   2.4370570e-02
   2.2862729e-04
   1.1852665e-02
   7.3460120e-02
   1.9977310e-01
   2.2544025e-01
   1.1336400e-01
  -4.6499196e-01
  -7.3051394e-01
  -3.3164928e-01
  -6.8147600e-02
  -4.8013992e-02
  -2.7720320e-02
  -1.8792449e-02
  -2.4344627e-02
   1.8889022e-03
  -2.1025422e-02
  -2.6217530e-03
  -3.4151877e-03
  -2.7110359e-03
   1.5504240e-03
  -4.6707261e-03
  -2.1643085e-03
   1.1874311e-02
  -6.1541587e-03
   2.1042944e-02
   6.6500693e-03
   3.3258574e-02
   3.7001934e-02
   5.0192727e-02
   7.0647140e-02
   8.7870376e-02
   1.1348528e-01
   1.5216112e-01
   1.4692680e-01
   1.8536030e-01
   1.7942551e-01
   1.9970362e-01
   1.8780994e-01
   1.6906885e-01
   1.4108721e-01
   1.0149069e-01
   6.5777531e-02
   3.8702211e-02
   5.2162331e-03
   1.0314454e-03
  -2.2632953e-02
  -3.3648427e-02
  -3.6356831e-02
  -5.3282045e-02
  -3.4302530e-02
  -5.6154136e-02
  -4.3260340e-02
  -6.0570695e-02
  -6.1812851e-02
  -6.4139180e-02
  -6.4679226e-02
  -7.7463997e-02
  -6.5174342e-02
  -8.0365204e-02
  -6.8570524e-02
  -7.8822287e-02
  -7.6201596e-02
  -8.4550750e-02
  -7.9218660e-02
  -8.2741736e-02
  -8.2714280e-02
  -7.5706249e-02
  -8.3079364e-02
  -7.8555085e-02
  -8.6581076e-02
  -7.6794803e-02
  -8.4603782e-02
  -7.2260889e-02
  -8.7312468e-02
  -7.0837434e-02
  -8.5516964e-02
  -7.8419892e-02
  -8.1660754e-02
  -7.5801757e-02
  -8.0058719e-02
  -7.4423379e-02
  -8.2227249e-02
  -7.0773583e-02
  -8.9252013e-02
  -6.9488501e-02
  -7.8161754e-02
  -7.0851034e-02
  -7.5209884e-02
  -7.2614961e-02
  -7.3622909e-02
  -6.6948883e-02
  -5.5051942e-02
  -4.4062779e-02
  -4.1473817e-02
  -4.2403442e-02
  -2.6071761e-02
  -2.3434374e-02
  -3.2514159e-02
  -5.5120346e-02
  -6.1025832e-02
  -7.4396868e-02
  -6.7475865e-02
  -7.1556335e-02
  -6.8954862e-02
  -8.4787752e-02
  -6.8570256e-02
  -7.5919117e-02
  -6.5360999e-02
  -8.2733074e-02
  -6.8613568e-02
  -7.7196142e-02
  -5.4790035e-02
  -5.6325368e-03
   1.1184222e-01
   2.5043762e-01
   3.3397579e-01
  -3.1122313e-01
  -6.8901846e-01
  -4.2239082e-01
  -2.0715722e-01
  -1.3368172e-01
  -8.3860922e-02
  -7.3698447e-02
  -8.1309011e-02
  -5.0588651e-02
  -7.5071197e-02
  -4.3300659e-02
  -4.7397606e-02
  -4.8799514e-02
  -4.0595047e-02
  -4.2664614e-02
  -4.2094500e-02
  -3.1498816e-02
  -4.6683199e-02
  -2.0265826e-02
  -4.0581428e-02
  -1.6238866e-02
  -2.0531238e-02
  -1.9509849e-02
  -3.8420896e-04
   1.6118634e-03
   1.9451255e-02
   3.5300588e-02
   4.2243454e-02
   7.4872004e-02
   8.8196187e-02
   1.2032915e-01
   1.4112247e-01
   1.4429057e-01
   1.7513066e-01
   1.6070285e-01
   1.8120454e-01
   1.6265176e-01
   1.4655419e-01
   1.1608021e-01
   9.2744762e-02
   6.2488461e-02
   4.3810597e-02
   7.8482221e-03
  -3.2529005e-03
  -3.6010477e-02
  -3.1990512e-02
  -4.5483495e-02
  -5.5833834e-02
  -3.8733680e-02
  -5.4018880e-02
  -4.1724816e-02
  -4.4752583e-02
  -3.4480219e-02
  -3.8089155e-02
  -2.8005572e-02
  -3.0777919e-02
  -2.3710379e-02
  -3.3433973e-02
  -7.6725298e-03
  -1.6632960e-02
  -9.8496189e-03
  -1.8147669e-02
  -2.2802539e-03
  -6.7629674e-03
  -2.5059602e-02
  -5.4000222e-02
  -5.7194669e-02
  -7.5836374e-02
  -6.1599848e-02
  -7.4374164e-02
  -7.3205087e-02
  -8.1852734e-02
  -7.9667564e-02
  -7.1338474e-02
  -7.8125866e-02
  -7.2934765e-02
  -8.5761060e-02
  -7.8976032e-02
  -8.5579900e-02
  -4.8124788e-02
   3.0917781e-02
   1.0459125e-01
   1.8994308e-01
  -1.4525007e-01
  -7.7574885e-01
  -5.4378814e-01
  -2.2670575e-01
  -9.1455462e-02
  -7.2755859e-02
  -3.4867892e-02
  -6.0920473e-02
  -2.9150163e-02
  -4.0185921e-02
  -3.1183204e-02
  -1.5705099e-02
  -2.3901244e-02
  -1.4381317e-02
  -4.7388993e-03
  -1.9576753e-02
   8.5191675e-03
  -7.4281740e-03
   1.5773706e-02
   1.5325501e-02
   1.6849374e-02
   3.2849575e-02
   2.9006099e-02
   5.5472027e-02
   6.0855010e-02
   7.2558561e-02
   9.7327304e-02
   1.1009763e-01
   1.4027884e-01
   1.6599712e-01
   1.8335878e-01
   2.2186201e-01
   2.1659413e-01
   2.4034836e-01
   2.2204456e-01
   2.1468486e-01
   1.8728509e-01
   1.5814359e-01
   1.2082043e-01
   8.7863136e-02
   5.0198085e-02
   3.2293351e-02
  -1.4188741e-03
   5.1533742e-03
  -7.1266119e-03
  -1.4469859e-02
  -3.8088723e-03
  -2.0223141e-02
  -5.7267110e-04
  -1.6538303e-02
  -4.2875889e-03
  -1.3893850e-02
  -4.6590205e-03
  -2.0437785e-02
  -6.5012240e-03
  -2.3846691e-02
  -1.3781004e-02
  -2.4695378e-02
   4.4154292e-03
   3.5096685e-03
   1.1486064e-02
   1.5611064e-02
   3.0841474e-02
   1.9880052e-02
   8.8407164e-03
  -2.2937023e-02
  -2.4231298e-02
  -2.4230506e-02
  -2.9714421e-02
  -2.2196034e-02
  -4.2310332e-02
  -3.4642546e-02
  -4.4118946e-02
  -2.9724637e-02
  -4.2294733e-02
  -3.2436832e-02
  -4.4674613e-02
  -3.4057475e-02
  -3.9933948e-02
   1.6552790e-02
   9.1000841e-02
   1.9902425e-01
   2.4045882e-01
  -3.1001608e-01
  -7.1665689e-01
  -3.7713086e-01
  -1.3710467e-01
  -5.0747903e-02
  -2.5229259e-02
  -1.1855852e-02
  -3.1794591e-02
   3.3146314e-03
  -1.9353381e-02
   4.2727151e-03
   7.1758611e-03
  -5.3811945e-03
   2.1259062e-02
  -2.9828266e-03
   2.3250754e-02
   1.6764663e-02
   2.0234026e-02
   2.9765990e-02
   2.2841572e-02
   2.7513353e-02
   5.0881555e-02
   3.6031133e-02
   7.3017248e-02
   6.3105050e-02
   9.6987524e-02
   1.0003011e-01
   1.2616020e-01
   1.4675048e-01
   1.8295057e-01
   2.0137091e-01
   2.2955152e-01
   2.3111903e-01
   2.4660340e-01
   2.2827030e-01
   2.2152050e-01
   1.9449253e-01
   1.5689166e-01
   1.3085429e-01
   8.8723956e-02
   6.5864906e-02
   4.3661935e-02
   2.1608741e-02
   1.9340903e-02
   1.7973980e-02
   5.4528074e-04
   7.1541716e-03
  -8.4669197e-03
   8.3508217e-03
  -2.5931716e-03
   9.8965742e-03
   1.3236194e-03
   6.2830071e-03
   2.4490320e-03
   2.1978236e-03
  -5.8197117e-03
   5.9114991e-04
  -4.2250666e-03
   2.1194422e-02
   2.1624697e-02
   1.8831798e-02
   2.9082505e-02
   4.5475287e-02
   3.1179352e-02
   1.0976930e-02
  -6.7456611e-03
  -2.0913455e-02
  -2.0538364e-02
  -2.9563508e-02
  -2.5258152e-02
  -3.7494957e-02
  -3.1870193e-02
  -4.6163660e-02
  -2.5797709e-02
  -4.0755303e-02
  -3.3360297e-02
  -4.3013211e-02
  -3.1677085e-02
  -3.1949287e-02
   1.7469840e-02
   8.9299359e-02
   1.8997405e-01
   2.3217070e-01
  -3.4233181e-01
  -7.4691154e-01
  -3.9510237e-01
  -1.4169154e-01
  -6.0137055e-02
  -2.8702010e-02
  -2.2518199e-02
  -2.5678770e-02
  -1.6351366e-02
  -2.0156135e-02
  -1.9549836e-02
   7.5326911e-04
  -1.5638378e-02
   1.6451933e-02
  -1.0288003e-02
   1.9030254e-02
   1.4378919e-02
   9.6223116e-03
   1.8957728e-02
   2.4512867e-02
   2.3085035e-02
   3.7690035e-02
   2.9201685e-02
   6.2128152e-02
   5.3960945e-02
   8.1741412e-02
   9.6017337e-02
   1.1881051e-01
   1.5491321e-01
   1.6866549e-01
   1.9528538e-01
   2.1495319e-01
   2.1874011e-01
   2.3353688e-01
   2.2841550e-01
   2.1013334e-01
   1.8421069e-01
   1.3897107e-01
   1.1755361e-01
   6.3433151e-02
   4.8737273e-02
   1.7980987e-02
   8.0834185e-03
  -9.2711574e-03
  -7.7271737e-03
  -1.7570799e-02
  -1.3215892e-02
  -1.8138338e-02
  -5.4913471e-04
  -1.8258644e-02
  -3.9668054e-03
  -1.4071833e-02
  -1.3515559e-02
  -1.7059738e-02
  -1.8675418e-02
  -2.0147080e-02
  -1.5076625e-02
  -1.9311241e-02
   1.4085287e-03
   5.5159802e-03
  -6.3824556e-04
   8.2545488e-03
   1.0336850e-02
   2.5357634e-02
  -1.4425161e-02
  -2.1780721e-02
  -4.2411226e-02
  -3.9929453e-02
  -4.6231225e-02
  -4.0420052e-02
  -6.2570778e-02
  -5.3704182e-02
  -6.5613447e-02
  -4.7263179e-02
  -6.6221836e-02
  -5.8519725e-02
  -6.4879064e-02
  -5.6032292e-02
  -4.8774754e-02
  -1.2591192e-02
   6.3938097e-02
   1.4843051e-01
   2.1243237e-01
  -2.2762579e-01
  -7.5136513e-01
  -4.5658221e-01
  -1.7631520e-01
  -7.4550160e-02
  -5.0531341e-02
  -3.8995258e-02
  -4.6467845e-02
  -3.5314935e-02
  -2.9898228e-02
  -3.5698931e-02
  -1.0901984e-02
  -3.1166523e-02
   2.9157561e-03
  -2.0114057e-02
  -1.3881652e-03
   2.4402917e-03
  -5.8676415e-04
   6.0206715e-03
   9.5300744e-03
   1.2939498e-02
   1.6439028e-02
   1.8742546e-02
   4.4651932e-02
   4.4208314e-02
   3.7388151e-02
   7.9142144e-02
   8.9053403e-02
   1.2814127e-01
   1.4772958e-01
   1.7710061e-01
   2.0282876e-01
   2.1411048e-01
   2.1752024e-01
   2.1738569e-01
   1.8759792e-01
   1.8199543e-01
   1.2971221e-01
   1.1188275e-01
   6.1975599e-02
   4.2267796e-02
   1.5584462e-02
  -6.8337590e-04
  -1.9576895e-02
  -1.9134252e-02
  -2.8622386e-02
  -2.5475235e-02
  -2.6798969e-02
  -2.5183477e-02
  -1.5355795e-02
  -2.8723163e-02
  -1.6749750e-02
  -2.7151581e-02
  -6.1148092e-03
  -2.5740617e-02
  -1.9410182e-02
  -2.7718664e-02
  -2.2253679e-02
  -1.2556041e-02
  -1.2569388e-03
  -9.9784282e-03
   1.1760443e-03
  -2.5769964e-03
   1.6656971e-02
  -1.1296381e-02
  -2.0496935e-02
  -4.9286721e-02
  -4.7787179e-02
  -5.9244084e-02
  -4.7210885e-02
  -6.6222865e-02
  -6.9912802e-02
  -5.9238974e-02
  -6.3978683e-02
  -5.8485546e-02
  -6.6813951e-02
  -5.5608175e-02
  -7.4410694e-02
  -5.5116888e-02
  -3.4709518e-02
   5.1278595e-02
   1.2253112e-01
   2.1393998e-01
  -1.1177551e-01
  -7.4810136e-01
  -5.4422890e-01
  -2.1087981e-01
  -9.2675887e-02
  -5.5950691e-02
  -3.8606800e-02
  -3.7894053e-02
  -2.9227238e-02
  -2.7496187e-02
  -3.5852629e-02
  -5.2152348e-03
  -3.2096902e-02
  -5.7185718e-03
  -3.4012233e-03
  -1.4874217e-02
   1.2244903e-02
  -1.0990220e-02
   1.2987963e-02
   1.0119645e-03
   1.0215426e-02
   2.5481335e-02
   2.9412613e-02
   3.6868651e-02
   5.0245981e-02
   5.0223547e-02
   8.8942675e-02
   9.4339341e-02
   1.3083845e-01
   1.4921861e-01
   1.8011104e-01
   1.9314312e-01
   2.0926389e-01
   2.1540835e-01
   2.2416945e-01
   1.9555682e-01
   1.8283071e-01
   1.3968757e-01
   1.1552605e-01
   7.3831104e-02
   4.5490022e-02
   2.6655755e-02
   4.5138816e-03
  -5.6634756e-03
  -1.6946501e-02
  -1.5336545e-02
  -2.3975547e-02
  -2.1243988e-02
  -2.6272209e-02
  -1.7535296e-02
  -2.5713913e-02
  -9.8200422e-03
  -3.1167819e-02
  -1.7069742e-02
  -2.7943766e-02
  -2.5646326e-02
  -3.5738172e-02
  -2.6472155e-02
  -1.7894947e-02
  -3.3954020e-03
  -1.5932680e-02
   3.2451707e-03
   3.3916912e-03
   1.2032597e-02
  -8.7707241e-03
  -2.5755731e-02
  -4.2151250e-02
  -5.6365081e-02
  -3.9301596e-02
  -5.8588247e-02
  -4.6956377e-02
  -6.2600598e-02
  -6.1301060e-02
  -6.5251909e-02
  -4.8915068e-02
  -6.7043376e-02
  -5.3523345e-02
  -6.6497369e-02
  -5.0540481e-02
  -3.5112482e-02
   4.6294070e-02
   1.1504877e-01
   2.2165741e-01
   3.4674342e-02
  -6.7428839e-01
  -7.4343856e-01
  -2.5326270e-01
  -9.3598657e-02
  -5.6163624e-02
  -3.4133479e-02
  -3.3431271e-02
  -3.0182139e-02
  -2.8324515e-02
  -3.0853246e-02
  -1.0072581e-02
  -1.3296989e-02
  -2.0294399e-02
   5.1937524e-03
  -1.4680425e-02
   8.7227735e-03
  -8.3874937e-03
   4.7519306e-03
   9.1006566e-03
   1.0904262e-02
   1.2753229e-02
   2.6261379e-02
   2.4786607e-02
   5.3072961e-02
   4.1194537e-02
   8.1607046e-02
   8.6011930e-02
   1.1961931e-01
   1.4668182e-01
   1.7166347e-01
   1.9568591e-01
   2.1114794e-01
   2.1478992e-01
   2.2154960e-01
   2.0235786e-01
   1.8587045e-01
   1.5635883e-01
   1.1557576e-01
   9.1036258e-02
   4.7856056e-02
   3.5140847e-02
   1.1133464e-03
  -9.8836550e-03
  -1.5162271e-02
  -1.7215436e-02
  -2.5624766e-02
  -1.9620634e-02
  -2.9875941e-02
  -1.5848213e-02
  -2.7254772e-02
  -1.1142661e-02
  -1.9865730e-02
  -1.9715020e-02
  -2.6454897e-02
  -2.2153667e-02
  -3.6171983e-02
  -3.0354412e-02
  -2.5221351e-02
  -1.1614427e-02
  -7.7114300e-03
  -1.6049234e-02
  -1.1691900e-03
   4.9285466e-03
  -6.2147911e-03
  -3.2866182e-02
  -4.6058501e-02
  -6.5749139e-02
  -6.0584409e-02
  -6.6654752e-02
  -5.8401146e-02
  -7.6256006e-02
  -7.1131847e-02
  -7.5863416e-02
  -5.6914075e-02
  -8.3158717e-02
  -6.7066139e-02
  -7.1374785e-02
  -6.5369840e-02
  -5.8114012e-02
   5.6238893e-03
   7.6737906e-02
   1.7216975e-01
   2.0919507e-01
  -5.2343936e-01
  -7.6952724e-01
  -3.4142548e-01
  -1.2911933e-01
  -7.8760565e-02
  -3.6947618e-02
  -5.1064179e-02
  -4.7265791e-02
  -3.3928796e-02
  -3.7322649e-02
  -2.7817694e-02
  -1.6467643e-02
  -2.6579699e-02
   4.7271699e-03
  -2.6117296e-02
   6.1769342e-03
  -1.6275262e-02
  -1.1692568e-03
   3.4133551e-03
  -4.7858871e-03
   1.4606222e-02
   1.9101905e-02
   1.9024218e-02
   4.2178119e-02
   3.6040329e-02
   6.8669711e-02
   8.3745540e-02
   1.0430985e-01
   1.4565745e-01
   1.6176674e-01
   2.1257447e-01
   2.3864625e-01
   2.6962695e-01
   2.9987793e-01
   2.9807783e-01
   2.7325893e-01
   2.3933879e-01
   1.7153341e-01
   1.3011851e-01
   4.9301398e-02
   2.7649734e-02
  -1.1177542e-02
  -2.3628828e-02
  -4.1432071e-02
  -4.5887163e-02
  -5.3111649e-02
  -4.6573110e-02
  -5.8675569e-02
  -4.2119763e-02
  -5.5638144e-02
  -4.3349746e-02
  -1.2798933e-02
   1.3363261e-01
   2.4182459e-01
   1.7749146e-01
  -1.4763734e-01
  -7.7490464e-01
  -5.2398135e-01
  -2.0395282e-01
  -8.3965652e-02
  -8.5767903e-02
  -4.9545859e-02
  -8.1343766e-02
  -4.2394397e-02
  -4.8842983e-02
  -4.4585921e-02
  -3.6159692e-02
  -4.4920292e-02
  -3.7974349e-02
  -1.9265391e-02
  -3.3595735e-02
  -7.4156327e-03
  -1.9341786e-02
   6.8513751e-03
   1.0262017e-02
   1.7124843e-02
   4.1338895e-02
   3.6762599e-02
   6.5998946e-02
   8.5021926e-02
   1.0266035e-01
   1.4007634e-01
   1.5735761e-01
   1.8575341e-01
   2.0971937e-01
   2.0875287e-01
   2.3440382e-01
   2.0390038e-01
   1.9610948e-01
   1.5034946e-01
   1.1996065e-01
   8.4197606e-02
   4.9759437e-02
   1.5765053e-02
   4.9005429e-03
  -2.4796692e-02
  -1.1918603e-02
  -3.5112285e-02
  -2.4646869e-02
  -3.5584567e-02
  -4.4021774e-02
  -2.3304302e-02
  -4.3779888e-02
  -3.0417783e-02
  -4.5487477e-02
  -4.3413247e-02
  -4.8820787e-02
  -4.3374480e-02
  -5.5390618e-02
  -4.5732121e-02
  -5.8111983e-02
  -4.8865603e-02
  -6.3259830e-02
  -4.5565818e-02
  -5.5594217e-02
  -4.7935737e-02
  -5.4164794e-02
  -4.7838050e-02
  -5.5572844e-02
  -4.5602389e-02
  -6.2527372e-02
  -4.4529960e-02
  -5.7496071e-02
  -4.5479446e-02
  -5.5781334e-02
  -4.7157956e-02
  -4.9759589e-02
  -5.6795076e-02
  -4.1294180e-02
  -4.5081620e-02
  -3.7275316e-02
  -4.4769812e-02
  -3.6565109e-02
  -4.6038406e-02
  -3.9962631e-02
  -4.7207319e-02
  -2.0108084e-02
  -2.1331458e-02
  -1.1889324e-03
  -1.4793504e-02
   2.9546358e-03
   4.8936187e-03
   4.5612105e-03
  -2.1043112e-02
  -2.4558182e-02
  -5.1234351e-02
  -4.0281311e-02
  -5.0471474e-02
  -3.6104958e-02
  -4.9701838e-02
  -5.5714705e-02
  -4.5972668e-02
  -4.4625556e-02
  -4.1276840e-02
  -4.9596395e-02
  -4.0696464e-02
  -4.5573804e-02
  -1.9986604e-02
   6.1835486e-02
   1.8403291e-01
   3.3695257e-01
   3.8513471e-01
  -5.1583495e-01
  -6.8715808e-01
  -3.0513637e-01
  -1.1618237e-01
  -8.7783759e-02
  -3.2067083e-02
  -5.3754848e-02
  -3.6358379e-02
  -2.6142399e-02
  -4.0307251e-02
  -1.8495037e-02
  -2.2828115e-02
  -3.0554433e-02
  -2.4993501e-03
  -3.3255882e-02
   3.6435681e-04
  -7.5381575e-03
  -1.8982241e-02
   1.5323705e-02
  -1.5728906e-02
   1.4289111e-02
   7.4830612e-03
   2.2114868e-02
   2.9313039e-02
   3.0446101e-02
   5.8401778e-02
   7.3029740e-02
   8.2490698e-02
   1.2810411e-01
   1.2690701e-01
   1.7753800e-01
   1.7855387e-01
   2.0816595e-01
   2.1772878e-01
   2.1855194e-01
   2.1737532e-01
   2.0470499e-01
   1.7421832e-01
   1.6282051e-01
   1.1013522e-01
   1.0215072e-01
   6.5173672e-02
   4.9818643e-02
   3.6937434e-02
   1.1224722e-02
   2.5920508e-02
   1.1104213e-03
   9.5475829e-03
   1.6448631e-03
   2.1205758e-03
   5.3432569e-03
   1.1610285e-02
   4.8794793e-03
   2.6225380e-02
   8.1778604e-03
   3.0041167e-02
   7.3063362e-03
   2.5174502e-02
   3.0837343e-02
   3.9255434e-02
   2.9836858e-02
   3.7614111e-02
   4.0524852e-02
   3.6639379e-02
   4.9353923e-03
  -4.9623537e-03
  -2.1680584e-02
  -2.8853969e-02
  -1.4202281e-02
  -2.9135525e-02
  -3.5055692e-02
  -4.1711475e-02
  -3.3254626e-02
  -3.8900781e-02
  -3.8955933e-02
  -4.0017825e-02
  -3.6202421e-02
  -4.2848115e-02
  -2.4147586e-02
   9.3395937e-04
   8.8661678e-02
   1.5826535e-01
   2.2203219e-01
  -3.0993522e-01
  -7.3511996e-01
  -4.1514774e-01
  -1.3837142e-01
  -5.7217881e-02
  -2.0203987e-02
  -1.0624110e-02
  -2.8394622e-02
   2.3983710e-03
  -2.0011736e-02
  -1.8830216e-04
  -8.8153255e-04
   2.9933058e-03
   1.1706562e-02
   1.1021306e-02
   1.0106422e-02
   2.4071024e-02
   9.1941158e-03
   4.1020527e-02
   2.7008281e-02
   4.5378404e-02
   3.4138094e-02
   5.0021137e-02
   6.0725468e-02
   7.2893227e-02
   7.5349955e-02
   1.0893733e-01
   1.1584220e-01
   1.6035474e-01
   1.6831408e-01
   2.0566124e-01
   2.1905079e-01
   2.3212763e-01
   2.3061013e-01
   2.1971202e-01
   2.0149183e-01
   1.8007231e-01
   1.3839393e-01
   1.1106623e-01
   7.5471940e-02
   4.7174762e-02
   2.9846229e-02
  -8.1713406e-04
   5.3756324e-03
  -1.3966648e-02
  -1.2701610e-02
  -2.0397215e-02
  -1.5183365e-02
  -2.4394809e-02
  -8.9258363e-03
  -1.7096817e-02
  -9.9966867e-03
  -2.4739833e-02
  -1.3942882e-02
  -3.3146637e-02
  -3.6460539e-02
  -2.5437293e-02
  -3.8213935e-02
  -1.4738936e-02
  -2.2390433e-02
  -1.0940240e-02
  -1.5388614e-02
   2.4354949e-03
   6.6737044e-04
  -1.6165949e-02
  -4.0518992e-02
  -4.9595304e-02
  -6.1712866e-02
  -4.9418729e-02
  -6.0694674e-02
  -6.5153958e-02
  -7.9335636e-02
  -6.1428659e-02
  -6.8691757e-02
  -6.0432969e-02
  -7.4821515e-02
  -5.8915380e-02
  -7.5583173e-02
  -5.8468790e-02
  -3.0997719e-02
   6.9208485e-02
   1.5038613e-01
   2.2918119e-01
  -2.5520880e-01
  -7.3948582e-01
  -4.3491890e-01
  -1.6648478e-01
  -8.2945054e-02
  -6.1155008e-02
  -4.0609853e-02
  -6.7837449e-02
  -3.5439687e-02
  -6.1031217e-02
  -3.5735365e-02
  -3.1022509e-02
  -3.1009656e-02
  -2.1224010e-02
  -1.4940973e-02
  -2.4739435e-02
  -1.4022003e-03
  -1.9496923e-02
   8.6170675e-03
  -9.1287936e-03
   6.0110667e-03
   1.3280356e-02
   1.2185648e-02
   2.8041126e-02
   1.7214801e-02
   4.0979848e-02
   6.8226968e-02
   8.3355590e-02
   1.2218432e-01
   1.4302580e-01
   1.8134178e-01
   2.1821899e-01
   2.3961442e-01
   2.5267659e-01
   2.1515324e-01
   2.0224877e-01
   1.6975446e-01
   1.3644968e-01
   9.3074360e-02
   6.5918607e-02
   2.3182897e-02
   1.4705665e-02
  -3.2576183e-02
  -2.7248509e-02
  -4.8822137e-02
  -3.6361800e-02
  -4.5569617e-02
   2.1624249e-02
   1.2598414e-01
   1.5806482e-01
   1.1455520e-01
  -3.9748484e-01
  -7.6432371e-01
  -3.9223478e-01
  -1.3504265e-01
  -8.9247675e-02
  -7.1876265e-02
  -6.3206481e-02
  -6.0692384e-02
  -5.8548067e-02
  -5.8298413e-02
  -5.1254297e-02
  -3.7791092e-02
  -5.9258756e-02
  -2.4266423e-02
  -4.6582132e-02
  -2.0953086e-02
  -2.7688327e-02
  -1.7741112e-02
  -1.4535847e-02
  -5.3694671e-03
  -6.2340545e-04
   2.2633262e-02
   1.8314321e-02
   5.5251699e-02
   5.5603320e-02
   9.4691056e-02
   1.1761763e-01
   1.3482630e-01
   1.5992384e-01
   1.6223290e-01
   1.8023705e-01
   1.7376919e-01
   1.7105895e-01
   1.3620899e-01
   1.0373955e-01
   6.6226545e-02
   3.9996704e-02
  -2.9651284e-03
  -4.0101302e-03
  -2.5596208e-02
  -2.3485287e-02
  -3.5078908e-02
  -3.7102555e-02
  -4.3775888e-02
  -3.5005458e-02
  -4.7603443e-02
  -3.9738445e-02
  -6.1052772e-02
  -5.8074234e-02
  -5.4795918e-02
  -6.1154996e-02
  -5.0019637e-02
  -6.9650491e-02
  -4.8052013e-02
  -6.8564908e-02
  -5.5512890e-02
  -6.4714721e-02
  -5.8371929e-02
  -6.2857391e-02
  -5.2703079e-02
  -6.4666875e-02
  -4.9345884e-02
  -6.2353076e-02
  -4.2403703e-02
  -6.1718753e-02
  -4.4100586e-02
  -5.3742057e-02
  -4.6154729e-02
  -4.7296791e-02
  -4.0572610e-02
  -4.3550059e-02
  -3.7983680e-02
  -4.5279992e-02
  -2.6928495e-02
  -4.4270652e-02
  -3.3123285e-02
  -2.7698120e-02
  -4.3328086e-02
  -2.7483267e-02
  -4.2715467e-02
  -8.1512620e-03
   7.5054100e-03
   1.3127201e-02
   7.5141038e-03
   2.8006376e-02
   1.8424821e-02
   2.8031963e-02
   4.1116107e-03
   8.3869780e-03
  -1.1142122e-02
  -1.0595928e-02
  -1.6805961e-02
  -1.4944808e-02
  -3.1013135e-02
  -1.6004035e-02
  -1.9789082e-02
  -1.6003369e-02
  -2.4658015e-02
  -1.5294889e-02
  -2.0238756e-02
   5.3553436e-03
   8.7567919e-02
   1.9972665e-01
   3.7216762e-01
   4.2121873e-01
  -3.9696671e-01
  -6.1892801e-01
  -2.4899631e-01
  -9.1201908e-02
  -5.4055246e-02
  -8.4704842e-03
  -8.2240904e-04
  -9.5956571e-03
   2.3638259e-02
  -6.1249941e-03
   3.1035189e-02
   1.0139876e-02
   2.6561493e-02
   3.2967347e-02
   2.6015859e-02
   4.0340136e-02
   3.6360347e-02
   2.7567143e-02
   4.7480072e-02
   2.7826454e-02
   5.4931964e-02
   5.1883112e-02
   4.4091689e-02
   8.1028558e-02
   6.0231206e-02
   1.0406844e-01
   1.1212568e-01
   1.3543283e-01
   1.6007293e-01
   1.7184339e-01
   1.9892450e-01
   2.2267513e-01
   2.1691927e-01
   2.4466001e-01
   2.2364965e-01
   2.4427189e-01
   2.1370296e-01
   1.9837251e-01
   1.6490850e-01
   1.4025791e-01
   1.0961799e-01
   8.9362080e-02
   5.3976203e-02
   4.9791105e-02
   1.6069257e-02
   2.9262856e-02
   9.7033239e-03
   4.6895293e-03
   1.8744667e-02
   2.8080630e-03
   1.8641909e-02
   1.0271896e-02
   2.0361877e-02
   1.3860021e-02
   1.8566826e-02
   1.3902852e-02
   1.5944598e-02
   5.8460004e-03
   1.8988914e-02
  -5.3270238e-03
   3.9175968e-03
  -8.6336117e-03
   1.5258027e-03
   3.7382020e-03
   2.0134019e-02
   1.4252668e-02
   2.1711239e-02
   2.6713371e-02
   3.9402280e-02
   1.4318302e-03
  -5.6643861e-03
  -3.2402420e-02
  -2.7525479e-02
  -3.5788689e-02
  -3.3148427e-02
  -4.5689879e-02
  -5.1818448e-02
  -4.2741556e-02
  -4.9834346e-02
  -3.8417220e-02
  -5.0152923e-02
  -4.1527340e-02
  -5.2340847e-02
  -3.4634510e-02
  -1.8640545e-02
   7.8348656e-02
   1.6262879e-01
   2.4248134e-01
  -2.2714491e-01
  -7.2192917e-01
  -4.4046779e-01
  -1.6029698e-01
  -7.9044214e-02
  -3.8698800e-02
  -2.3595924e-02
  -4.8401615e-02
  -2.4555919e-02
  -2.2623679e-02
  -1.7719216e-02
  -2.4075766e-02
  -1.7794398e-02
  -1.4289063e-02
  -7.2405809e-03
  -7.5824748e-03
